 -1.1003049e-002 -7.8939185e-003
 -2.0841882e-002 -3.4269846e-002
 -2.9332520e-002 -5.7836882e-002
 -3.8551266e-002 -7.4422032e-002
 -4.9811194e-002 -8.4136781e-002
 -6.2136220e-002 -9.0190943e-002
 -7.2553516e-002 -9.5640916e-002
 -7.7929654e-002 -1.0076935e-001
 -7.7180447e-002 -1.0322208e-001
 -7.2029835e-002 -1.0054342e-001
 -6.5908066e-002 -9.2853451e-002
 -6.1759317e-002 -8.3282662e-002
 -6.0614239e-002 -7.5932338e-002
 -6.1724824e-002 -7.2957213e-002
 -6.3795386e-002 -7.3150905e-002
 -6.6137694e-002 -7.3202310e-002
 -6.8709191e-002 -7.0527974e-002
 -7.1395429e-002 -6.5448908e-002
 -7.3245236e-002 -6.0728374e-002
 -7.3047474e-002 -5.8980735e-002
 -7.0615395e-002 -6.0137087e-002
 -6.7778873e-002 -6.1053165e-002
 -6.7595887e-002 -5.7778115e-002
 -7.1938983e-002 -4.8767345e-002
 -7.9510701e-002 -3.6655385e-002
 -8.5811811e-002 -2.6910448e-002
 -8.5719061e-002 -2.4211924e-002
 -7.7064974e-002 -2.9055386e-002
 -6.2602332e-002 -3.7152984e-002
 -4.8762566e-002 -4.2204535e-002
 -4.1506164e-002 -4.0014665e-002
 -4.2651919e-002 -3.1384481e-002
 -4.9004436e-002 -2.1614064e-002
 -5.5190152e-002 -1.7097372e-002
 -5.7810313e-002 -2.1228708e-002
 -5.7788394e-002 -3.2365243e-002
 -5.8956427e-002 -4.4993328e-002
 -6.4055239e-002 -5.3219795e-002
 -7.1511420e-002 -5.4169486e-002
 -7.5810778e-002 -4.9206250e-002
 -7.1654112e-002 -4.2527559e-002
 -5.8713997e-002 -3.8374700e-002
 -4.3034112e-002 -3.8639705e-002
 -3.3592187e-002 -4.2339308e-002
 -3.6148456e-002 -4.6893250e-002
 -4.8776832e-002 -4.9992022e-002
 -6.2679887e-002 -5.0777584e-002
 -6.8080563e-002 -4.9750694e-002
 -6.1113783e-002 -4.7920159e-002
 -4.6727645e-002 -4.6040303e-002
 -3.5220298e-002 -4.4366659e-002
 -3.4896469e-002 -4.3006444e-002
 -4.5911870e-002 -4.2233228e-002
 -6.0010466e-002 -4.2492550e-002
 -6.6246666e-002 -4.3920436e-002
 -5.8696613e-002 -4.5963274e-002
 -4.0686233e-002 -4.7610328e-002
 -2.2414202e-002 -4.8022081e-002
 -1.3926815e-002 -4.7241827e-002
 -1.8353931e-002 -4.6232345e-002
 -3.0306078e-002 -4.6177947e-002
 -4.0461022e-002 -4.7628500e-002
 -4.2448155e-002 -4.9912914e-002
 -3.7218566e-002 -5.1578190e-002
 -3.1548860e-002 -5.1377511e-002
 -3.2147492e-002 -4.9170182e-002
 -3.9959426e-002 -4.5901283e-002
 -4.8946698e-002 -4.2702286e-002
 -5.0557145e-002 -3.9942304e-002
 -4.0408104e-002 -3.7068444e-002
 -2.2191685e-002 -3.3351272e-002
 -5.8263099e-003 -2.9061787e-002
 -9.1628615e-004 -2.5871733e-002
 -1.0297335e-002 -2.5983531e-002
 -2.8031945e-002 -3.0425928e-002
 -4.3312604e-002 -3.7747723e-002
 -4.7515588e-002 -4.4431168e-002
 -3.9532303e-002 -4.7082262e-002
 -2.5599876e-002 -4.4618103e-002
 -1.4301560e-002 -3.9115717e-002
 -1.0529762e-002 -3.4110922e-002
 -1.2802530e-002 -3.1683577e-002
 -1.5529570e-002 -3.0416648e-002
 -1.4216382e-002 -2.6019498e-002
 -9.3395435e-003 -1.4422054e-002
 -5.7925506e-003  4.9664953e-003
 -8.2229605e-003  2.8516066e-002
 -1.5998265e-002  5.0940277e-002
 -2.2164708e-002  6.9273699e-002
 -1.7735610e-002  8.4958056e-002
  1.4081005e-003  1.0193780e-001
  3.0005994e-002  1.2182267e-001
  5.5158760e-002  1.3987221e-001
  6.3718931e-002  1.4568625e-001
  5.0864549e-002  1.2925479e-001
  2.3785891e-002  8.8713994e-002
 -2.5609373e-003  3.3887496e-002
 -1.5009541e-002 -1.7747924e-002
 -1.0739596e-002 -5.0928753e-002
  1.3148097e-003 -6.1665538e-002
  7.3267395e-003 -5.8979366e-002
 -8.3956790e-004 -5.7507857e-002
 -1.9147816e-002 -6.6031106e-002
 -3.4029930e-002 -8.0595491e-002
 -3.2962645e-002 -8.8114805e-002
 -1.5417225e-002 -7.8321935e-002
  4.6051176e-003 -5.4823558e-002
  7.9793631e-003 -3.5249722e-002
 -1.3706979e-002 -3.8011646e-002
 -4.6487469e-002 -6.3582586e-002
 -5.6586594e-002 -8.4582240e-002
 -8.2276645e-003 -5.5248168e-002
  1.1213531e-001  6.1276693e-002
  2.8068883e-001  2.6323158e-001
  4.4114258e-001  4.9799202e-001
  5.2964140e-001  6.7883034e-001
  5.0690232e-001  7.2491245e-001
  3.7943596e-001  6.0341549e-001
  1.9740834e-001  3.4950916e-001
  2.9774563e-002  5.1568039e-002
 -6.9417063e-002 -1.9072604e-001
 -8.4838533e-002 -3.1235923e-001
 -4.1418532e-002 -3.0792535e-001
  1.5305126e-002 -2.2391515e-001
  4.6661745e-002 -1.2611356e-001
  3.9896183e-002 -6.3245208e-002
  9.1144621e-003 -4.7357088e-002
 -1.9576891e-002 -5.9014105e-002
 -2.7146118e-002 -6.9155008e-002
 -1.2655292e-002 -6.1001367e-002
  9.6189272e-003 -3.8114608e-002
  2.2602858e-002 -1.6466841e-002
  1.8609774e-002 -9.3337336e-003
  3.1827903e-003 -1.7098339e-002
 -1.0746596e-002 -2.8565285e-002
 -1.2903516e-002 -3.0952485e-002
 -2.4071039e-003 -1.9919155e-002
  1.3110639e-002 -1.9822555e-003
  2.4222941e-002  1.1627243e-002
  2.6631993e-002  1.4152861e-002
  2.3237157e-002  8.0008600e-003
  2.0563849e-002  1.9593550e-003
  2.3064452e-002  3.7584411e-003
  2.9908724e-002  1.4245957e-002
  3.6468019e-002  2.7422452e-002
  3.8775921e-002  3.5934354e-002
  3.7107151e-002  3.7209234e-002
  3.5872488e-002  3.5278839e-002
  4.0015371e-002  3.7093120e-002
  5.1040163e-002  4.6599346e-002
  6.5859932e-002  6.1434820e-002
  7.9361742e-002  7.4890454e-002
  8.8147728e-002  8.1176796e-002
  9.2839007e-002  7.9845795e-002
  9.6922509e-002  7.5823036e-002
  1.0344825e-001  7.5129793e-002
  1.1226348e-001  7.9900674e-002
  1.2017071e-001  8.6740407e-002
  1.2361734e-001  8.9668117e-002
  1.2183131e-001  8.5305129e-002
  1.1749092e-001  7.5939543e-002
  1.1450700e-001  6.8102504e-002
  1.1471366e-001  6.7698921e-002
  1.1633606e-001  7.5472973e-002
  1.1541534e-001  8.6324256e-002
  1.0934697e-001  9.2924125e-002
  9.9357821e-002  9.0932243e-002
  8.9923363e-002  8.1749382e-002
  8.5168201e-002  7.0651811e-002
  8.5100602e-002  6.2063066e-002
  8.4740406e-002  5.5681472e-002
  7.7383178e-002  4.6700151e-002
  5.9641320e-002  2.9898969e-002
  3.4637214e-002  4.4566739e-003
  1.0773353e-002 -2.4335058e-002
 -3.4823982e-003 -4.7965646e-002
 -5.1751882e-003 -6.0275412e-002
  9.7666564e-004 -6.1661939e-002
  5.8198558e-003 -5.8687893e-002
  1.9565535e-003 -5.9443917e-002
 -1.1329779e-002 -6.7984671e-002
 -2.7715628e-002 -8.1723815e-002
 -3.8421440e-002 -9.3564905e-002
 -3.8258324e-002 -9.7002336e-002
 -2.9144010e-002 -9.0558995e-002
 -1.8648779e-002 -7.8535399e-002
 -1.4579296e-002 -6.7670108e-002
 -1.9674537e-002 -6.2534477e-002
 -3.0035466e-002 -6.2912843e-002
 -3.8069223e-002 -6.4795940e-002
 -3.7912306e-002 -6.3880078e-002
 -2.9425294e-002 -5.8800437e-002
 -1.8176103e-002 -5.1777228e-002
 -1.1642579e-002 -4.6550792e-002
 -1.4312131e-002 -4.5387860e-002
 -2.4747336e-002 -4.7396934e-002
 -3.6677691e-002 -4.9487385e-002
 -4.2871322e-002 -4.8808386e-002
 -3.9239597e-002 -4.4696428e-002
 -2.6882169e-002 -3.8776358e-002
 -1.1095479e-002 -3.3430463e-002
  1.5746771e-003 -3.0047638e-002
  6.5039439e-003 -2.8394203e-002
  2.6473701e-003 -2.7509619e-002
 -7.4725307e-003 -2.6935877e-002
 -1.9466566e-002 -2.7306797e-002
 -2.8988055e-002 -2.9532520e-002
 -3.3414988e-002 -3.3561487e-002
 -3.2646471e-002 -3.7980283e-002
 -2.8933281e-002 -4.0922854e-002
 -2.5674858e-002 -4.1638304e-002
 -2.5751026e-002 -4.1318216e-002
 -2.9995519e-002 -4.2324528e-002
 -3.6870938e-002 -4.6243714e-002
 -4.3343288e-002 -5.2219342e-002
 -4.6722147e-002 -5.7056589e-002
 -4.6286753e-002 -5.7342130e-002
 -4.3552147e-002 -5.1974405e-002
 -4.1118023e-002 -4.3322834e-002
 -4.0851917e-002 -3.5934263e-002
 -4.2901073e-002 -3.3704031e-002
 -4.5994309e-002 -3.7475228e-002
 -4.9080253e-002 -4.4796012e-002
 -5.2288384e-002 -5.1776660e-002
 -5.6870256e-002 -5.5757552e-002
 -6.3648167e-002 -5.6685798e-002
 -7.1440472e-002 -5.6289788e-002
 -7.7135924e-002 -5.6148442e-002
 -7.7585907e-002 -5.6146123e-002
 -7.2265554e-002 -5.4873045e-002
 -6.4456689e-002 -5.1312932e-002
 -5.9536773e-002 -4.6341392e-002
 -6.1512867e-002 -4.2592731e-002
 -6.9885525e-002 -4.2605153e-002
 -7.9577632e-002 -4.6679420e-002
 -8.4160486e-002 -5.2232882e-002
 -8.0411744e-002 -5.5417528e-002
 -7.0851455e-002 -5.3846564e-002
 -6.2249360e-002 -4.8302506e-002
 -6.0891125e-002 -4.2118077e-002
 -6.8040550e-002 -3.8698384e-002
 -7.8901695e-002 -3.9153012e-002
 -8.5989433e-002 -4.1746611e-002
 -8.4606713e-002 -4.3625929e-002
 -7.6399550e-002 -4.3243689e-002
 -6.8212604e-002 -4.1375757e-002
 -6.7186771e-002 -4.0135304e-002
 -7.5348616e-002 -4.0629101e-002
 -8.7936745e-002 -4.1776919e-002
 -9.6592851e-002 -4.1051950e-002
 -9.5237679e-002 -3.6803549e-002
 -8.4132905e-002 -2.9920706e-002
 -6.9683597e-002 -2.3334029e-002
 -5.9927448e-002 -1.9472988e-002
 -5.9335255e-002 -1.7814375e-002
 -6.6497038e-002 -1.4731182e-002
 -7.5978947e-002 -6.0945205e-003
 -8.2602112e-002  9.3298048e-003
 -8.4468207e-002  2.8743613e-002
 -8.2871688e-002  4.7512959e-002
 -7.9672294e-002  6.3125131e-002
 -7.4864465e-002  7.7315879e-002
 -6.6665919e-002  9.4160351e-002
 -5.4005034e-002  1.1506407e-001
 -3.8883424e-002  1.3477703e-001
 -2.6313004e-002  1.4245355e-001
 -2.1238122e-002  1.2820808e-001
 -2.5035098e-002  9.0910779e-002
 -3.4544784e-002  4.1167882e-002
 -4.4748512e-002 -3.8078400e-003
 -5.2781924e-002 -3.0528717e-002
 -5.9796136e-002 -3.7721228e-002
 -6.8772090e-002 -3.6313558e-002
 -7.9865786e-002 -4.0403966e-002
 -8.7860558e-002 -5.5628038e-002
 -8.4950527e-002 -7.4155646e-002
 -6.8002636e-002 -8.1075724e-002
 -4.4399993e-002 -6.7883542e-002
 -3.0330057e-002 -4.2454155e-002
 -4.0146221e-002 -2.5827426e-002
 -7.2781075e-002 -3.5756457e-002
 -1.0522962e-001 -6.7539501e-002
 -1.0051830e-001 -8.7375587e-002
 -2.8374992e-002 -4.6949859e-002
  1.1270421e-001  8.6277500e-002
  2.8656452e-001  3.0093875e-001
  4.3175905e-001  5.3542261e-001
  4.9045510e-001  7.0100617e-001
  4.3815140e-001  7.2414389e-001
  2.9695740e-001  5.8471335e-001
  1.2425352e-001  3.2793916e-001
 -1.6710722e-002  4.2893724e-002
 -8.7107628e-002 -1.8026155e-001
 -8.6920115e-002 -2.9013517e-001
 -4.6936034e-002 -2.9014767e-001
 -5.6715505e-003 -2.2497695e-001
  1.3128043e-002 -1.4927846e-001
  9.2767251e-003 -9.8866096e-002
 -1.3510014e-003 -7.9684397e-002
 -2.6407919e-003 -7.6668479e-002
  9.5729161e-003 -7.2186053e-002
  2.6858927e-002 -5.9777323e-002
  3.7195407e-002 -4.5372808e-002
  3.5539086e-002 -3.8370791e-002
  2.7530163e-002 -4.1716596e-002
  2.4287802e-002 -4.9020616e-002
  3.3186165e-002 -5.0194040e-002
  5.2234093e-002 -3.9865677e-002
  7.2066178e-002 -2.1609895e-002
  8.3524214e-002 -4.8976608e-003
  8.4532587e-002  2.3861244e-003
  8.0969506e-002 -2.8222359e-004
  8.1033550e-002 -6.4028943e-003
  8.8168891e-002 -7.9444594e-003
  9.8222759e-002 -1.2928787e-003
  1.0307791e-001  1.0846237e-002
  9.7719307e-002  2.2692629e-002
  8.4938715e-002  3.0417018e-002
  7.3921971e-002  3.4868236e-002
  7.3410480e-002  3.9800957e-002
  8.5030306e-002  4.7761591e-002
  1.0155285e-001  5.7193334e-002
  1.1186498e-001  6.3578098e-002
  1.0911048e-001  6.3612765e-002
  9.5759585e-002  5.8717568e-002
  8.2167076e-002  5.4706452e-002
  7.9502509e-002  5.7588096e-002
  9.2113433e-002  6.8657001e-002
  1.1451682e-001  8.2784967e-002
  1.3518550e-001  9.1539731e-002
  1.4410810e-001  8.9106011e-002
  1.3890808e-001  7.6632667e-002
  1.2553034e-001  6.1783452e-002
  1.1357893e-001  5.3768016e-002
  1.0976591e-001  5.7417971e-002
  1.1419332e-001  7.0414909e-002
  1.2122059e-001  8.5271290e-002
  1.2391245e-001  9.4404268e-002
  1.1852120e-001  9.4558534e-002
  1.0601326e-001  8.7650321e-002
  9.0181409e-002  7.7907942e-002
  7.4387134e-002  6.8105710e-002
  5.9438566e-002  5.7533713e-002
  4.4012913e-002  4.3376502e-002
  2.6701540e-002  2.3752195e-002
  7.8241724e-003 -4.5247854e-005
 -1.0276319e-002 -2.3935877e-002
 -2.4648181e-002 -4.3501666e-002
 -3.3551814e-002 -5.6676550e-002
 -3.7399827e-002 -6.4501267e-002
 -3.8291537e-002 -6.9677527e-002
 -3.8759935e-002 -7.4161786e-002
 -4.0757559e-002 -7.7903613e-002
 -4.5330475e-002 -7.9516874e-002
 -5.2763145e-002 -7.8052756e-002
 -6.2440813e-002 -7.4246718e-002
 -7.2765817e-002 -7.0211413e-002
 -8.1219512e-002 -6.7852804e-002
 -8.4939894e-002 -6.7250165e-002
 -8.2302897e-002 -6.6645446e-002
 -7.4157702e-002 -6.3855079e-002
 -6.3955837e-002 -5.8191232e-002
 -5.6174449e-002 -5.1118768e-002
 -5.3813345e-002 -4.5218139e-002
 -5.6589022e-002 -4.2226753e-002
 -6.1207116e-002 -4.1724903e-002
 -6.3604404e-002 -4.1552001e-002
 -6.1719243e-002 -3.9563466e-002
 -5.6915719e-002 -3.5433111e-002
 -5.2965172e-002 -3.0991815e-002
 -5.3187897e-002 -2.8731423e-002
 -5.7863790e-002 -2.9688739e-002
 -6.3682045e-002 -3.2278721e-002
 -6.5858458e-002 -3.3279646e-002
 -6.1545380e-002 -3.0241768e-002
 -5.1924977e-002 -2.3479992e-002
 -4.1863319e-002 -1.6388578e-002
 -3.7056788e-002 -1.3444929e-002
 -4.0361772e-002 -1.7169848e-002
 -5.0111065e-002 -2.6237715e-002
 -6.1001286e-002 -3.5942274e-002
 -6.7342731e-002 -4.0959380e-002
 -6.6422789e-002 -3.8584827e-002
 -5.9791145e-002 -3.0212506e-002
 -5.2304591e-002 -2.0583981e-002
 -4.9157523e-002 -1.4989990e-002
 -5.3141699e-002 -1.6376011e-002
 -6.3344267e-002 -2.4036953e-002
 -7.5892719e-002 -3.4535025e-002
 -8.6104832e-002 -4.3954256e-002
 -9.0631620e-002 -4.9874293e-002
 -8.8668536e-002 -5.2019472e-002
 -8.1992410e-002 -5.1491120e-002
 -7.4064519e-002 -4.9572833e-002
 -6.8573918e-002 -4.6966727e-002
 -6.8012107e-002 -4.3889621e-002
 -7.2692637e-002 -4.0749383e-002
 -8.0656749e-002 -3.8472960e-002
 -8.8352815e-002 -3.7977375e-002
 -9.2280189e-002 -3.9350865e-002
 -9.0787963e-002 -4.1439353e-002
 -8.4972052e-002 -4.2377235e-002
 -7.8115247e-002 -4.0862521e-002
 -7.3824170e-002 -3.7237472e-002
 -7.3948229e-002 -3.3549275e-002
 -7.7499704e-002 -3.2358077e-002
 -8.1383909e-002 -3.5016251e-002
 -8.2380479e-002 -4.0645187e-002
 -7.9051056e-002 -4.6489788e-002
 -7.2311274e-002 -4.9474385e-002
 -6.4320839e-002 -4.7880259e-002
 -5.6865233e-002 -4.2100311e-002
 -5.0265843e-002 -3.4161165e-002
 -4.4061289e-002 -2.6614613e-002
 -3.8495505e-002 -2.1543295e-002
 -3.5306873e-002 -2.0061893e-002
 -3.6997681e-002 -2.2382415e-002
 -4.4646912e-002 -2.7752709e-002
 -5.6008904e-002 -3.4288418e-002
 -6.5871764e-002 -3.9103409e-002
 -6.8922190e-002 -3.9329424e-002
 -6.3472296e-002 -3.4001984e-002
 -5.3306365e-002 -2.5404791e-002
 -4.5731144e-002 -1.8671669e-002
 -4.6851869e-002 -1.8996633e-002
 -5.7061327e-002 -2.7781818e-002
 -7.0030708e-002 -4.0242979e-002
 -7.6483682e-002 -4.6885808e-002
 -7.0372091e-002 -3.8724051e-002
 -5.3367062e-002 -1.3283015e-002
 -3.4226852e-002  2.2737202e-002
 -2.3198970e-002  5.6691979e-002
 -2.5209152e-002  7.7450862e-002
 -3.6526204e-002  8.2454882e-002
 -4.7351609e-002  7.9265760e-002
 -4.8516573e-002  8.0072747e-002
 -3.7751665e-002  9.2443948e-002
 -2.0921565e-002  1.1285301e-001
 -7.6964568e-003  1.2785691e-001
 -4.7775316e-003  1.2265423e-001
 -1.1678559e-002  9.1334701e-002
 -2.2131221e-002  4.1575380e-002
 -2.9491069e-002 -9.6115791e-003
 -3.1885616e-002 -4.6281320e-002
 -3.2940220e-002 -6.2770635e-002
 -3.7607300e-002 -6.5232658e-002
 -4.6797713e-002 -6.4743428e-002
 -5.5600448e-002 -6.7779073e-002
 -5.7254713e-002 -7.1867243e-002
 -4.9886900e-002 -6.9876299e-002
 -4.0217208e-002 -5.9222401e-002
 -3.9671724e-002 -4.7244048e-002
 -5.4578650e-002 -4.6551605e-002
 -7.6624104e-002 -6.1717504e-002
 -8.1943269e-002 -7.7200247e-002
 -4.2071979e-002 -5.7989477e-002
  5.7951993e-002  3.2709391e-002
  2.0520484e-001  2.0699251e-001
  3.5815965e-001  4.3343736e-001
  4.6266688e-001  6.4093171e-001
  4.7704531e-001  7.4717572e-001
  3.9291356e-001  6.9860806e-001
  2.4005069e-001  4.9958595e-001
  7.2436336e-002  2.1357418e-001
 -5.6909981e-002 -6.5512150e-002
 -1.1860618e-001 -2.5621119e-001
 -1.1577367e-001 -3.2351636e-001
 -7.6074165e-002 -2.8663048e-001
 -3.3501557e-002 -1.9938622e-001
 -1.0951330e-002 -1.1735471e-001
 -1.2471899e-002 -7.1408514e-002
 -2.7251221e-002 -6.0788708e-002
 -4.0398715e-002 -6.5270582e-002
 -4.2995762e-002 -6.4779276e-002
 -3.5627353e-002 -5.2604268e-002
 -2.5284738e-002 -3.5642584e-002
 -1.8971803e-002 -2.4773109e-002
 -1.9073921e-002 -2.4678533e-002
 -2.2783820e-002 -3.0689820e-002
 -2.5063506e-002 -3.3682877e-002
 -2.2419257e-002 -2.7927753e-002
 -1.5057992e-002 -1.5254048e-002
 -6.2313672e-003 -2.7702772e-003
  2.6965140e-004  3.3882661e-003
  2.3519825e-003  2.7498033e-003
  6.2303360e-004  2.0715508e-004
 -2.2402066e-003  1.5393854e-003
 -3.0213180e-003  8.7898931e-003
  2.9840240e-004  1.9067266e-002
  7.5385970e-003  2.7438384e-002
  1.6567335e-002  3.1248197e-002
  2.4446565e-002  3.2134439e-002
  2.9171072e-002  3.4300533e-002
  3.0987006e-002  4.0794807e-002
  3.2462201e-002  5.0989215e-002
  3.7123235e-002  6.1252712e-002
  4.7102922e-002  6.8005632e-002
  6.1299520e-002  7.0514243e-002
  7.5445112e-002  7.1039919e-002
  8.4351106e-002  7.2589296e-002
  8.5274045e-002  7.6178010e-002
  7.9957261e-002  8.0053872e-002
  7.4133371e-002  8.1553670e-002
  7.4205096e-002  7.9790455e-002
  8.3126106e-002  7.6702389e-002
  9.8151021e-002  7.5491392e-002
  1.1212461e-001  7.7811321e-002
  1.1763225e-001  8.2079149e-002
  1.1149463e-001  8.4558319e-002
  9.6674067e-002  8.2397054e-002
  8.0346265e-002  7.6103494e-002
  6.9473797e-002  6.9310023e-002
  6.6557740e-002  6.5643667e-002
  6.8344760e-002  6.5216140e-002
  6.8079504e-002  6.3535799e-002
  5.9876482e-002  5.4206458e-002
  4.2165878e-002  3.3393146e-002
  1.8335012e-002  3.0164589e-003
 -5.4811623e-003 -2.9846926e-002
 -2.3835947e-002 -5.6941605e-002
 -3.4484468e-002 -7.3510865e-002
 -3.8580733e-002 -8.0395933e-002
 -3.9205661e-002 -8.2466692e-002
 -3.9175501e-002 -8.4635411e-002
 -3.9845724e-002 -8.8785359e-002
 -4.1251582e-002 -9.3403233e-002
 -4.2762390e-002 -9.5677064e-002
 -4.3786385e-002 -9.4118749e-002
 -4.4031505e-002 -8.9506805e-002
 -4.3543073e-002 -8.3849078e-002
 -4.2707915e-002 -7.8590968e-002
 -4.2236769e-002 -7.3835702e-002
 -4.3148334e-002 -6.9232908e-002
 -4.6212182e-002 -6.5282173e-002
 -5.1187172e-002 -6.3595670e-002
 -5.6432362e-002 -6.5377503e-002
 -5.9418263e-002 -6.9554869e-002
 -5.8261564e-002 -7.2417930e-002
 -5.3102506e-002 -6.9630045e-002
 -4.6382330e-002 -5.9486586e-002
 -4.1441277e-002 -4.4865799e-002
 -4.0433688e-002 -3.2099801e-002
 -4.2614743e-002 -2.6934444e-002
 -4.4676750e-002 -3.0551433e-002
 -4.2974597e-002 -3.8572599e-002
 -3.6310093e-002 -4.4077396e-002
 -2.7160366e-002 -4.2445683e-002
 -2.0322921e-002 -3.4563073e-002
 -1.9868701e-002 -2.5971821e-002
 -2.6267527e-002 -2.2560391e-002
 -3.5855219e-002 -2.6140812e-002
 -4.3127955e-002 -3.3282532e-002
 -4.4438308e-002 -3.8257034e-002
 -4.0420233e-002 -3.7746376e-002
 -3.5475585e-002 -3.3408915e-002
 -3.4586991e-002 -3.0323487e-002
 -3.9678714e-002 -3.2534494e-002
 -4.8096216e-002 -3.9306593e-002
 -5.4385723e-002 -4.5340202e-002
 -5.4060689e-002 -4.4823214e-002
 -4.6980154e-002 -3.6438788e-002
 -3.7775533e-002 -2.5169225e-002
 -3.2967845e-002 -1.9160357e-002
 -3.6772645e-002 -2.3850855e-002
 -4.8306436e-002 -3.7716492e-002
 -6.2077401e-002 -5.2933302e-002
 -7.1440633e-002 -6.0674598e-002
 -7.2695626e-002 -5.7211651e-002
 -6.7164980e-002 -4.6425175e-002
 -6.0107663e-002 -3.6888896e-002
 -5.7141384e-002 -3.5692556e-002
 -6.0627088e-002 -4.3527253e-002
 -6.8219926e-002 -5.4459569e-002
 -7.4542624e-002 -6.0515968e-002
 -7.4581591e-002 -5.7290798e-002
 -6.6780606e-002 -4.6766270e-002
 -5.4138157e-002 -3.5556106e-002
 -4.2621454e-002 -3.0174794e-002
 -3.7859662e-002 -3.2887576e-002
 -4.2082246e-002 -4.0884460e-002
 -5.2951030e-002 -4.8879503e-002
 -6.4757012e-002 -5.2741557e-002
 -7.1363980e-002 -5.1492185e-002
 -6.9389252e-002 -4.6784140e-002
 -6.0079548e-002 -4.1077876e-002
 -4.8732554e-002 -3.6184529e-002
 -4.1899933e-002 -3.3085829e-002
 -4.3744087e-002 -3.2452877e-002
 -5.3510149e-002 -3.4687210e-002
 -6.5684420e-002 -3.9141907e-002
 -7.2999772e-002 -4.3573582e-002
 -7.0551839e-002 -4.4843881e-002
 -5.8815407e-002 -4.1195757e-002
 -4.3554609e-002 -3.4290709e-002
 -3.2482124e-002 -2.8939303e-002
 -3.0655426e-002 -2.9996965e-002
 -3.7514454e-002 -3.8418156e-002
 -4.7556817e-002 -4.9635000e-002
 -5.4150626e-002 -5.6084485e-002
 -5.3836039e-002 -5.2541970e-002
 -4.8465652e-002 -4.0479334e-002
 -4.3501205e-002 -2.7610908e-002
 -4.3836877e-002 -2.2323078e-002
 -5.0200861e-002 -2.6840882e-002
 -5.8740654e-002 -3.4578534e-002
 -6.3954675e-002 -3.4202117e-002
 -6.2816039e-002 -1.7905304e-002
 -5.6779238e-002  1.2290180e-002
 -5.0307849e-002  4.5295125e-002
 -4.7102371e-002  6.8694172e-002
 -4.6908734e-002  7.7944000e-002
 -4.5738370e-002  7.9595913e-002
 -3.9285836e-002  8.5540679e-002
 -2.6926736e-002  1.0224212e-001
 -1.2967751e-002  1.2338281e-001
 -4.0863864e-003  1.3234595e-001
 -4.6466119e-003  1.1371003e-001
 -1.3821958e-002  6.5573754e-002
 -2.6365629e-002  3.3229238e-003
 -3.6838039e-002 -4.8966646e-002
 -4.3486420e-002 -7.3904805e-002
 -4.8688258e-002 -7.1797407e-002
 -5.5428466e-002 -5.9060583e-002
 -6.2932225e-002 -5.4832145e-002
 -6.6090570e-002 -6.6300771e-002
 -5.9707391e-002 -8.3881305e-002
 -4.4994715e-002 -9.0661077e-002
 -3.2101507e-002 -7.8447333e-002
 -3.4878461e-002 -5.7039503e-002
 -5.9607236e-002 -4.7329213e-002
 -9.4906686e-002 -6.1326269e-002
 -1.1188560e-001 -8.4104775e-002
 -7.7256023e-002 -7.3635095e-002
  2.5967524e-002  1.6278837e-002
  1.8276044e-001  2.0183954e-001
  3.4646934e-001  4.4627699e-001
  4.5767435e-001  6.6615412e-001
  4.7261036e-001  7.6789557e-001
  3.8532367e-001  6.9580308e-001
  2.3096025e-001  4.6386050e-001
  6.7899744e-002  1.5191389e-001
 -5.0788837e-002 -1.3239810e-001
 -1.0058549e-001 -3.0433248e-001
 -9.1500542e-002 -3.3756446e-001
 -5.5567098e-002 -2.6658546e-001
 -2.5535045e-002 -1.5859374e-001
 -1.8035423e-002 -7.4272565e-002
 -2.9880522e-002 -4.0511644e-002
 -4.6569589e-002 -4.7610444e-002
 -5.5232755e-002 -6.7137464e-002
 -5.2436284e-002 -7.5034915e-002
 -4.3443958e-002 -6.5031123e-002
 -3.5553370e-002 -4.6554305e-002
 -3.1813944e-002 -3.2742336e-002
 -2.9913815e-002 -2.9343860e-002
 -2.5861616e-002 -3.2010808e-002
 -1.8507788e-002 -3.2047711e-002
 -1.0791487e-002 -2.4309092e-002
 -6.9006198e-003 -1.0777854e-002
 -8.1749013e-003  2.1251100e-003
 -1.1464375e-002  9.3350926e-003
 -1.1549710e-002  1.0830407e-002
 -5.5309970e-003  1.0768833e-002
  4.5929097e-003  1.3486269e-002
  1.3126640e-002  2.0016580e-002
  1.4956910e-002  2.7944422e-002
  9.4301308e-003  3.4157795e-002
  9.9225233e-004  3.7780982e-002
 -4.0471645e-003  4.0663288e-002
 -1.6605486e-003  4.5346190e-002
  7.8167636e-003  5.2625962e-002
  2.0915277e-002  6.0949390e-002
  3.4358221e-002  6.8144040e-002
  4.7108373e-002  7.3601177e-002
  5.9927047e-002  7.8961096e-002
  7.3032169e-002  8.6473818e-002
  8.4335584e-002  9.6478831e-002
  9.0392591e-002  1.0641616e-001
  8.9452637e-002  1.1248626e-001
  8.3916856e-002  1.1273723e-001
  7.9600853e-002  1.0889371e-001
  8.1820395e-002  1.0528880e-001
  9.0983641e-002  1.0548130e-001
  1.0138621e-001  1.0934405e-001
  1.0462874e-001  1.1294375e-001
  9.5571755e-002  1.1159633e-001
  7.6618405e-002  1.0374642e-001
  5.6838859e-002  9.2453829e-002
  4.6142837e-002  8.3128272e-002
  4.8545239e-002  7.9111941e-002
  5.9223049e-002  7.8578669e-002
  6.7623305e-002  7.5329670e-002
  6.4392336e-002  6.3040191e-002
  4.7256727e-002  3.9948321e-002
  2.1970488e-002  1.0411662e-002
 -2.1213304e-003 -1.7829100e-002
 -1.8473944e-002 -3.8740781e-002
 -2.6978558e-002 -5.1606689e-002
 -3.2644907e-002 -6.0605248e-002
 -4.0656138e-002 -7.0802631e-002
 -5.2035653e-002 -8.3852362e-002
 -6.3159116e-002 -9.6780831e-002
 -6.9056236e-002 -1.0453599e-001
 -6.7735197e-002 -1.0420463e-001
 -6.1893056e-002 -9.7544975e-002
 -5.6838113e-002 -8.9723924e-002
 -5.6297055e-002 -8.5357332e-002
 -5.9539712e-002 -8.4908935e-002
 -6.2289261e-002 -8.4655047e-002
 -6.0452164e-002 -7.9989455e-002
 -5.3580001e-002 -6.9579891e-002
 -4.5379228e-002 -5.7048183e-002
 -4.0795773e-002 -4.8531873e-002
 -4.2056624e-002 -4.8134589e-002
 -4.6767768e-002 -5.4513113e-002
 -4.9702788e-002 -6.1492760e-002
 -4.6872768e-002 -6.2335484e-002
 -3.8721172e-002 -5.4492600e-002
 -2.9894376e-002 -4.1387940e-002
 -2.5780713e-002 -2.9832565e-002
 -2.8427947e-002 -2.5038908e-002
 -3.5075728e-002 -2.7077863e-002
 -4.0177732e-002 -3.1108224e-002
 -3.9506442e-002 -3.1256441e-002
 -3.3261713e-002 -2.5141314e-002
 -2.5826816e-002 -1.5630232e-002
 -2.2573529e-002 -8.5800559e-003
 -2.5922299e-002 -8.3740330e-003
 -3.3652166e-002 -1.4691356e-002
 -4.0616644e-002 -2.2958083e-002
 -4.2241971e-002 -2.7883640e-002
 -3.7612734e-002 -2.7473531e-002
 -2.9887049e-002 -2.4354778e-002
 -2.4098400e-002 -2.3575548e-002
 -2.3965775e-002 -2.8528832e-002
 -2.9802656e-002 -3.8126094e-002
 -3.8637354e-002 -4.7306086e-002
 -4.6144814e-002 -5.0518819e-002
 -4.8978990e-002 -4.5600029e-002
 -4.6279007e-002 -3.5258620e-002
 -3.9827425e-002 -2.5394511e-002
 -3.3147702e-002 -2.1469055e-002
 -3.0032606e-002 -2.5488235e-002
 -3.2839206e-002 -3.5301984e-002
 -4.1348369e-002 -4.6474522e-002
 -5.2404351e-002 -5.4854822e-002
 -6.0990005e-002 -5.8360118e-002
 -6.2447554e-002 -5.7120855e-002
 -5.5058478e-002 -5.2582332e-002
 -4.1450109e-002 -4.6686078e-002
 -2.7521581e-002 -4.1428973e-002
 -1.9292420e-002 -3.8583123e-002
 -1.9464403e-002 -3.9118210e-002
 -2.5937223e-002 -4.2432578e-002
 -3.3419938e-002 -4.6110916e-002
 -3.7178044e-002 -4.7008808e-002
 -3.6230883e-002 -4.3419199e-002
 -3.3895994e-002 -3.6940363e-002
 -3.4998377e-002 -3.2241273e-002
 -4.1956655e-002 -3.4355287e-002
 -5.2594605e-002 -4.4953582e-002
 -6.1519710e-002 -6.0343593e-002
 -6.3973771e-002 -7.2861003e-002
 -5.9228047e-002 -7.5382142e-002
 -5.1074538e-002 -6.5945990e-002
 -4.4826813e-002 -4.9418752e-002
 -4.3380955e-002 -3.4505402e-002
 -4.5301738e-002 -2.8223376e-002
 -4.6381730e-002 -3.1525251e-002
 -4.3555587e-002 -3.9182461e-002
 -3.7701438e-002 -4.3920578e-002
 -3.3003997e-002 -4.1692429e-002
 -3.3384660e-002 -3.4354912e-002
 -3.8911239e-002 -2.7877993e-002
 -4.5142076e-002 -2.7467906e-002
 -4.6649661e-002 -3.3623339e-002
 -4.1676810e-002 -4.1968471e-002
 -3.4487228e-002 -4.6942367e-002
 -3.2737190e-002 -4.6181569e-002
 -4.1678108e-002 -4.2111511e-002
 -5.9291590e-002 -3.9484639e-002
 -7.6330201e-002 -4.1027308e-002
 -8.1944651e-002 -4.4853921e-002
 -7.0921859e-002 -4.5902776e-002
 -4.7723204e-002 -4.0483624e-002
 -2.3993762e-002 -2.9935956e-002
 -1.1314462e-002 -2.0346000e-002
 -1.4021217e-002 -1.8005244e-002
 -2.7280867e-002 -2.4213640e-002
 -4.1089406e-002 -3.3570389e-002
 -4.7321839e-002 -3.7526404e-002
 -4.4199355e-002 -3.0617126e-002
 -3.5574004e-002 -1.4655178e-002
 -2.6293736e-002  2.4953610e-003
 -1.7832689e-002  1.2845374e-002
 -7.8754145e-003  1.4215433e-002
  5.8560361e-003  1.1412994e-002
  2.1508868e-002  1.1640880e-002
  3.2784619e-002  1.7925258e-002
  3.3255850e-002  2.6032508e-002
  2.2132126e-002  2.7652771e-002
  6.1209191e-003  1.7514729e-002
 -4.7830695e-003 -1.5306119e-003
 -5.0329136e-003 -1.9975108e-002
  1.2804468e-003 -2.9014676e-002
  2.7073719e-003 -2.7924697e-002
 -1.0529761e-002 -2.4894937e-002
 -3.7299302e-002 -2.9917438e-002
 -6.4088821e-002 -4.5241104e-002
 -7.3674553e-002 -6.1609060e-002
 -5.8873878e-002 -6.4873516e-002
 -3.0844991e-002 -4.8813999e-002
 -1.4036372e-002 -2.3605941e-002
 -2.9010598e-002 -1.0954017e-002
 -7.3739203e-002 -2.6175746e-002
 -1.1738995e-001 -5.9129485e-002
 -1.1372485e-001 -6.9829591e-002
 -2.8383193e-002 -6.8786036e-003
  1.3576469e-001  1.5851655e-001
  3.3219250e-001  4.0370388e-001
  4.8925999e-001  6.5182492e-001
  5.4488402e-001  8.0208732e-001
  4.7788857e-001  7.7943434e-001
  3.1830883e-001  5.7597459e-001
  1.3081646e-001  2.5921065e-001
 -1.8424814e-002 -5.9112237e-002
 -9.2410422e-002 -2.7657731e-001
 -9.4967069e-002 -3.4604574e-001
 -5.9638266e-002 -2.8959690e-001
 -2.5339454e-002 -1.7563498e-001
 -1.4523256e-002 -7.5975581e-002
 -2.5901210e-002 -2.9537387e-002
 -4.2973661e-002 -3.1854073e-002
 -4.9550055e-002 -5.1536521e-002
 -4.1163999e-002 -5.8258879e-002
 -2.5469666e-002 -4.2467152e-002
 -1.4014477e-002 -1.6085975e-002
 -1.2823833e-002  1.9701995e-003
 -1.8785732e-002  2.3021339e-003
 -2.3576164e-002 -8.9713488e-003
 -2.1148076e-002 -1.7331871e-002
 -1.2492733e-002 -1.2664197e-002
 -4.4099505e-003  3.0490016e-003
 -3.6542270e-003  1.8537473e-002
 -1.1481672e-002  2.3304594e-002
 -2.2534780e-002  1.6343107e-002
 -2.8837726e-002  6.5786456e-003
 -2.5408360e-002  5.3499257e-003
 -1.3448267e-002  1.7241364e-002
  1.1111679e-003  3.6637161e-002
  1.2093662e-002  5.2429886e-002
  1.7447481e-002  5.6973831e-002
  1.9873866e-002  5.1848724e-002
  2.4102365e-002  4.6301388e-002
  3.2848479e-002  4.9772241e-002
  4.4738102e-002  6.4561102e-002
  5.5428173e-002  8.4196124e-002
  6.1045025e-002  9.8571233e-002
  6.1225837e-002  1.0168364e-001
  5.9561128e-002  9.5910147e-002
  6.1168310e-002  8.9770579e-002
  6.9394852e-002  9.1196525e-002
  8.3485876e-002  1.0149818e-001
  9.9069182e-002  1.1467330e-001
  1.1081729e-001  1.2220734e-001
  1.1543021e-001  1.1959192e-001
  1.1335521e-001  1.0961370e-001
  1.0821505e-001  1.0023532e-001
  1.0454079e-001  9.8768692e-002
  1.0521307e-001  1.0680054e-001
  1.0998390e-001  1.1933027e-001
  1.1573299e-001  1.2839009e-001
  1.1819345e-001  1.2812300e-001
  1.1412328e-001  1.1777676e-001
  1.0286330e-001  1.0100418e-001
  8.6596217e-002  8.2540187e-002
  6.9028793e-002  6.5037097e-002
  5.3519179e-002  4.8167248e-002
  4.1503173e-002  3.0113250e-002
  3.2114852e-002  9.8241575e-003
  2.3233850e-002 -1.1879917e-002
  1.3147110e-002 -3.2892613e-002
  1.7515490e-003 -5.1282403e-002
 -9.5128702e-003 -6.6220779e-002
 -1.8815047e-002 -7.7764815e-002
 -2.5424339e-002 -8.6040513e-002
 -3.0186250e-002 -9.0704163e-002
 -3.4618712e-002 -9.1338062e-002
 -3.9419580e-002 -8.8263128e-002
 -4.3522516e-002 -8.3001664e-002
 -4.4843789e-002 -7.7825187e-002
 -4.2047412e-002 -7.4569319e-002
 -3.6096322e-002 -7.3634123e-002
 -3.0226317e-002 -7.3959879e-002
 -2.7923705e-002 -7.3930519e-002
 -3.0282898e-002 -7.2286593e-002
 -3.4716829e-002 -6.8678395e-002
 -3.6499299e-002 -6.3484704e-002
 -3.2115438e-002 -5.7355476e-002
 -2.2147559e-002 -5.0977228e-002
 -1.1605914e-002 -4.5239600e-002
 -6.8628272e-003 -4.1292047e-002
 -1.1311249e-002 -4.0019925e-002
 -2.2574528e-002 -4.1105896e-002
 -3.3637739e-002 -4.2608046e-002
 -3.7218808e-002 -4.1628563e-002
 -3.0618421e-002 -3.6164110e-002
 -1.7538780e-002 -2.6771507e-002
 -5.7479321e-003 -1.6826205e-002
 -2.0555862e-003 -1.0868554e-002
 -8.0826122e-003 -1.1782136e-002
 -1.9585517e-002 -1.8780248e-002
 -2.9763954e-002 -2.7778295e-002
 -3.3816666e-002 -3.3937847e-002
 -3.1576518e-002 -3.4723013e-002
 -2.6618053e-002 -3.1366637e-002
 -2.2812685e-002 -2.7595787e-002
 -2.1210202e-002 -2.6773042e-002
 -1.9811535e-002 -2.9462858e-002
 -1.5973726e-002 -3.3277472e-002
 -9.5230255e-003 -3.4981675e-002
 -3.5430258e-003 -3.3176364e-002
 -2.3688307e-003 -2.9434471e-002
 -7.7925477e-003 -2.6906862e-002
 -1.7187839e-002 -2.7763920e-002
 -2.4723852e-002 -3.1452719e-002
 -2.5441311e-002 -3.5250428e-002
 -1.8890996e-002 -3.6553242e-002
 -9.6330581e-003 -3.5090657e-002
 -4.1025788e-003 -3.3233454e-002
 -6.0043772e-003 -3.3955115e-002
 -1.3778659e-002 -3.8182016e-002
 -2.1979585e-002 -4.3835381e-002
 -2.5534885e-002 -4.7358593e-002
 -2.3610983e-002 -4.6642496e-002
 -1.9991070e-002 -4.2948093e-002
 -1.9779437e-002 -4.0094926e-002
 -2.4979289e-002 -4.1470440e-002
 -3.2499390e-002 -4.7046775e-002
 -3.6333696e-002 -5.2925596e-002
 -3.2423028e-002 -5.4126658e-002
 -2.2378656e-002 -4.8490926e-002
 -1.3072429e-002 -3.8891756e-002
 -1.2024006e-002 -3.1523159e-002
 -2.1901442e-002 -3.1625310e-002
 -3.8061924e-002 -3.9556203e-002
 -5.1202381e-002 -5.0304231e-002
 -5.3417178e-002 -5.6836982e-002
 -4.3429104e-002 -5.5074790e-002
 -2.7572442e-002 -4.6822299e-002
 -1.5529636e-002 -3.8349084e-002
 -1.4122229e-002 -3.5802025e-002
 -2.3246798e-002 -4.0764461e-002
 -3.6498976e-002 -4.9211679e-002
 -4.5700657e-002 -5.4605120e-002
 -4.6034022e-002 -5.2709496e-002
 -3.8320045e-002 -4.4582833e-002
 -2.7502153e-002 -3.5626327e-002
 -1.8980497e-002 -3.1525195e-002
 -1.5483608e-002 -3.4254168e-002
 -1.6503005e-002 -4.1017144e-002
 -1.9933601e-002 -4.6841086e-002
 -2.3992876e-002 -4.8433864e-002
 -2.7902698e-002 -4.6338527e-002
 -3.1232796e-002 -4.3886785e-002
 -3.3153240e-002 -4.4011794e-002
 -3.2651026e-002 -4.6722154e-002
 -2.9656018e-002 -4.9126906e-002
 -2.6031617e-002 -4.8082040e-002
 -2.4944081e-002 -4.2985612e-002
 -2.8605424e-002 -3.6368499e-002
 -3.6198512e-002 -3.1763412e-002
 -4.3535578e-002 -3.0702811e-002
 -4.5411546e-002 -3.1471358e-002
 -3.9079287e-002 -3.0669649e-002
 -2.6239977e-002 -2.6275036e-002
 -1.2029269e-002 -1.9594801e-002
 -1.6357170e-003 -1.4299255e-002
  3.1747549e-003 -1.3205149e-002
  4.8075409e-003 -1.5592244e-002
  7.5815582e-003 -1.7453083e-002
  1.4028479e-002 -1.4834221e-002
  2.2858598e-002 -7.4742063e-003
  2.9935228e-002  3.0615771e-004
  3.1360946e-002  2.5516339e-003
  2.6068534e-002 -3.7021008e-003
  1.5842581e-002 -1.5912254e-002
  3.1937953e-003 -2.7899130e-002
 -1.0835342e-002 -3.4848633e-002
 -2.6474259e-002 -3.7186889e-002
 -4.2655982e-002 -3.9783647e-002
 -5.4865624e-002 -4.6777524e-002
 -5.6470227e-002 -5.6419193e-002
 -4.3812069e-002 -6.1081416e-002
 -2.1987765e-002 -5.3678305e-002
 -5.6057157e-003 -3.5887656e-002
 -1.1646104e-002 -2.0708428e-002
 -4.7106882e-002 -2.4552692e-002
 -9.8819094e-002 -5.1970653e-002
 -1.3415569e-001 -8.3635990e-002
 -1.1514063e-001 -7.8627883e-002
 -2.0063669e-002  5.5228958e-003
  1.3947733e-001  1.8409826e-001
  3.1755099e-001  4.2502179e-001
  4.5164453e-001  6.5259350e-001
  4.9115733e-001  7.7743424e-001
  4.2162139e-001  7.3911564e-001
  2.7140582e-001  5.3837583e-001
  9.7386759e-002  2.4022914e-001
 -4.2393138e-002 -5.5040290e-002
 -1.1405408e-001 -2.5765092e-001
 -1.1840868e-001 -3.2640504e-001
 -8.3157551e-002 -2.7985675e-001
 -4.3537504e-002 -1.7716714e-001
 -2.3517529e-002 -8.2402928e-002
 -2.7288773e-002 -3.3350745e-002
 -4.3639869e-002 -3.0764878e-002
 -5.7428867e-002 -4.9741229e-002
 -6.0079658e-002 -6.2158622e-002
 -5.2925260e-002 -5.4655472e-002
 -4.3249676e-002 -3.2548425e-002
 -3.7576566e-002 -1.0803332e-002
 -3.7133298e-002 -8.4398393e-004
 -3.8368281e-002 -3.1388476e-003
 -3.6882648e-002 -9.2033556e-003
 -3.1341479e-002 -9.6710957e-003
 -2.4322483e-002 -1.3896798e-003
 -1.9945272e-002  1.1356682e-002
 -2.0284435e-002  2.1375620e-002
 -2.3691167e-002  2.4344719e-002
 -2.5903755e-002  2.1483814e-002
 -2.3132195e-002  1.7771341e-002
 -1.4819487e-002  1.7745666e-002
 -4.1018098e-003  2.2547443e-002
  4.3975474e-003  3.0209498e-002
  7.8740035e-003  3.8254527e-002
  7.3194394e-003  4.5908029e-002
  6.9752027e-003  5.4139467e-002
  1.1342663e-002  6.3764200e-002
  2.1997587e-002  7.3737931e-002
  3.6021454e-002  8.1244714e-002
  4.7527534e-002  8.3780166e-002
  5.1299998e-002  8.1401635e-002
  4.6502762e-002  7.7291157e-002
  3.7832658e-002  7.5881114e-002
  3.3269187e-002  7.9927984e-002
  3.9434126e-002  8.8692398e-002
  5.7353220e-002  9.8536699e-002
  8.1334782e-002  1.0541118e-001
  1.0185929e-001  1.0733755e-001
  1.1104004e-001  1.0533575e-001
  1.0726258e-001  1.0231181e-001
  9.6021527e-002  1.0097960e-001
  8.6427444e-002  1.0235800e-001
  8.5422378e-002  1.0570425e-001
  9.3358147e-002  1.0937873e-001
  1.0372611e-001  1.1163722e-001
  1.0721469e-001  1.1085333e-001
  9.7333821e-002  1.0522622e-001
  7.4387957e-002  9.3003586e-002
  4.4981219e-002  7.3286562e-002
  1.8032267e-002  4.7144155e-002
 -1.6886713e-004  1.7869920e-002
 -8.6335528e-003 -9.9740984e-003
 -1.1023816e-002 -3.2664472e-002
 -1.2513907e-002 -4.9001547e-002
 -1.6727420e-002 -6.0566704e-002
 -2.4511102e-002 -7.0151415e-002
 -3.4701108e-002 -7.9600377e-002
 -4.5596814e-002 -8.8495026e-002
 -5.5563522e-002 -9.4557986e-002
 -6.2844302e-002 -9.5508085e-002
 -6.5259499e-002 -9.0889947e-002
 -6.1207783e-002 -8.2759262e-002
 -5.1289729e-002 -7.4586027e-002
 -3.9444130e-002 -6.9354351e-002
 -3.1743698e-002 -6.8055237e-002
 -3.3154151e-002 -6.9595878e-002
 -4.3793037e-002 -7.1726465e-002
 -5.7808188e-002 -7.2348859e-002
 -6.6265322e-002 -7.0395430e-002
 -6.2764870e-002 -6.5840281e-002
 -4.7900696e-002 -5.9395830e-002
 -2.9480564e-002 -5.2028164e-002
 -1.7865844e-002 -4.4858663e-002
 -1.9182373e-002 -3.9031326e-002
 -3.1069801e-002 -3.5407092e-002
 -4.4071275e-002 -3.4014544e-002
 -4.7899126e-002 -3.3842164e-002
 -3.8510890e-002 -3.3246418e-002
 -2.0864275e-002 -3.0850130e-002
 -5.6789419e-003 -2.6472791e-002
 -2.1463634e-003 -2.1349815e-002
 -1.1790427e-002 -1.7404146e-002
 -2.7612799e-002 -1.5996661e-002
 -3.8841529e-002 -1.7034911e-002
 -3.8215002e-002 -1.9174663e-002
 -2.6553760e-002 -2.0905165e-002
 -1.1840835e-002 -2.1770849e-002
 -3.5291446e-003 -2.2611451e-002
 -6.3413716e-003 -2.4777429e-002
 -1.7533487e-002 -2.8727322e-002
 -2.9156492e-002 -3.3226827e-002
 -3.3550446e-002 -3.5868406e-002
 -2.7932748e-002 -3.4629871e-002
 -1.5639199e-002 -2.9499696e-002
 -3.4546352e-003 -2.2914222e-002
  2.5430982e-003 -1.8602716e-002
  2.0221858e-005 -1.9418736e-002
 -9.3705075e-003 -2.5659352e-002
 -2.1732397e-002 -3.4727451e-002
 -3.3083616e-002 -4.2529409e-002
 -4.0659029e-002 -4.5683197e-002
 -4.3153084e-002 -4.3339177e-002
 -4.0566652e-002 -3.7512619e-002
 -3.4142183e-002 -3.1810778e-002
 -2.6340671e-002 -2.9467264e-002
 -2.0228393e-002 -3.1736229e-002
 -1.8146005e-002 -3.7470011e-002
 -2.0183264e-002 -4.3875954e-002
 -2.3801770e-002 -4.8039471e-002
 -2.5169281e-002 -4.8333368e-002
 -2.1732914e-002 -4.5037191e-002
 -1.4089651e-002 -3.9845502e-002
 -5.9750312e-003 -3.4944623e-002
 -1.9725194e-003 -3.1897608e-002
 -4.4171751e-003 -3.1030729e-002
 -1.1764132e-002 -3.1534363e-002
 -1.9756689e-002 -3.2128060e-002
 -2.4363075e-002 -3.1930346e-002
 -2.4537910e-002 -3.1036659e-002
 -2.2614065e-002 -3.0430161e-002
 -2.2112865e-002 -3.1280837e-002
 -2.4762554e-002 -3.4061518e-002
 -2.8965083e-002 -3.8057570e-002
 -3.1067532e-002 -4.1515092e-002
 -2.8427090e-002 -4.2593899e-002
 -2.1946346e-002 -4.0544007e-002
 -1.5794589e-002 -3.6371815e-002
 -1.4496198e-002 -3.2490521e-002
 -1.9272198e-002 -3.1433513e-002
 -2.6785954e-002 -3.4426101e-002
 -3.1119037e-002 -4.0382916e-002
 -2.7979993e-002 -4.6272927e-002
 -1.8194033e-002 -4.8706197e-002
 -7.6503874e-003 -4.5920341e-002
 -3.5543370e-003 -3.8975587e-002
 -9.4351650e-003 -3.1335740e-002
 -2.2408218e-002 -2.6926195e-002
 -3.4739487e-002 -2.7831017e-002
 -3.8691849e-002 -3.2908405e-002
 -3.1641788e-002 -3.8444107e-002
 -1.7826644e-002 -4.0446410e-002
 -5.5200614e-003 -3.7205782e-002
 -1.6152038e-003 -3.0414513e-002
 -7.2653156e-003 -2.4030170e-002
 -1.7460929e-002 -2.1586123e-002
 -2.4792282e-002 -2.3809573e-002
 -2.4697344e-002 -2.8230407e-002
 -1.8284017e-002 -3.0970378e-002
 -1.1076872e-002 -2.9625690e-002
 -8.5656646e-003 -2.4973442e-002
 -1.1860613e-002 -2.0230243e-002
 -1.6730275e-002 -1.8357941e-002
 -1.6689398e-002 -1.9503812e-002
 -7.8368063e-003 -2.0656495e-002
  8.0005187e-003 -1.8026985e-002
  2.4457499e-002 -1.0224984e-002
  3.5121374e-002  1.0929752e-004
  3.7921961e-002  7.8379131e-003
  3.6156642e-002  8.9935195e-003
  3.5053617e-002  3.7254174e-003
  3.6600381e-002 -3.9966698e-003
  3.6815089e-002 -9.9249373e-003
  2.8302800e-002 -1.3413951e-002
  6.7430942e-003 -1.8177804e-002
 -2.3497568e-002 -2.8718390e-002
 -4.9650716e-002 -4.4909794e-002
 -5.7868724e-002 -5.9597542e-002
 -4.3539710e-002 -6.2380762e-002
 -1.7148728e-002 -4.8055552e-002
 -9.9578743e-005 -2.3435337e-002
 -1.1174715e-002 -5.7935602e-003
 -5.1319436e-002 -1.1211705e-002
 -9.7084233e-002 -3.9026756e-002
 -1.0927313e-001 -6.3625341e-002
 -5.3798556e-002 -4.2241097e-002
  7.6218384e-002  6.1842453e-002
  2.5056160e-001  2.5240976e-001
  4.1152092e-001  4.8650983e-001
  4.9948227e-001  6.8542052e-001
  4.8123216e-001  7.6803510e-001
  3.6560103e-001  6.9030155e-001
  1.9813160e-001  4.6920604e-001
  3.8301108e-002  1.7730383e-001
 -6.8000241e-002 -9.0162775e-002
 -1.0609630e-001 -2.5801668e-001
 -9.2334589e-002 -3.0117280e-001
 -5.8904992e-002 -2.4744415e-001
 -3.4063819e-002 -1.5448250e-001
 -2.9299835e-002 -7.6524807e-002
 -3.8935583e-002 -3.9961693e-002
 -4.9388662e-002 -3.9200643e-002
 -5.0347147e-002 -5.0669601e-002
 -4.0550544e-002 -5.2883273e-002
 -2.6154253e-002 -3.9335029e-002
 -1.4532604e-002 -1.8030873e-002
 -8.9935433e-003 -1.4683486e-003
 -7.8777670e-003  3.8220469e-003
 -7.5802632e-003  7.7925589e-004
 -6.1855243e-003 -2.5222668e-003
 -4.8666986e-003 -2.7218020e-004
 -5.9456509e-003  7.0759579e-003
 -1.0072071e-002  1.4531908e-002
 -1.4867278e-002  1.7815948e-002
 -1.6313161e-002  1.7286632e-002
 -1.1724384e-002  1.7290448e-002
 -2.0194794e-003  2.1917987e-002
  8.7187877e-003  3.1112522e-002
  1.5935648e-002  4.0427482e-002
  1.7578723e-002  4.4677289e-002
  1.5329146e-002  4.2373643e-002
  1.3398086e-002  3.7307457e-002
  1.5833881e-002  3.5922506e-002
  2.4260339e-002  4.2469071e-002
  3.7268110e-002  5.5788075e-002
  5.1535360e-002  7.0039402e-002
  6.3801365e-002  7.8993203e-002
  7.2198829e-002  8.0340505e-002
  7.6523275e-002  7.6943191e-002
  7.7883883e-002  7.4300097e-002
  7.8034941e-002  7.6312191e-002
  7.8833289e-002  8.2599894e-002
  8.1851668e-002  8.9296588e-002
  8.7879850e-002  9.2383674e-002
  9.6486470e-002  9.0879307e-002
  1.0598495e-001  8.7465574e-002
  1.1391855e-001  8.6150998e-002
  1.1814424e-001  8.9083860e-002
  1.1780546e-001  9.5001914e-002
  1.1352014e-001  1.0027114e-001
  1.0672348e-001  1.0158535e-001
  9.8684968e-002  9.8047674e-002
  8.9860775e-002  9.1114784e-002
  7.9981400e-002  8.2658568e-002
  6.8608380e-002  7.2914474e-002
  5.5675422e-002  6.0107898e-002
  4.1581075e-002  4.2086640e-002
  2.6872695e-002  1.8603344e-002
  1.1920640e-002 -7.7144323e-003
 -2.8887691e-003 -3.2442288e-002
 -1.6825291e-002 -5.1879272e-002
 -2.8609851e-002 -6.4996069e-002
 -3.6841152e-002 -7.3438841e-002
 -4.0993231e-002 -7.9795452e-002
 -4.2107070e-002 -8.5369401e-002
 -4.2529138e-002 -8.9410592e-002
 -4.4714730e-002 -9.0195947e-002
 -4.9666667e-002 -8.7003167e-002
 -5.6240960e-002 -8.1277194e-002
 -6.1882915e-002 -7.6004273e-002
 -6.4365980e-002 -7.3680885e-002
 -6.3375422e-002 -7.4574175e-002
 -6.0547653e-002 -7.6395701e-002
 -5.8151327e-002 -7.5979153e-002
 -5.7214936e-002 -7.1462102e-002
 -5.6724747e-002 -6.3628014e-002
 -5.4404168e-002 -5.5199408e-002
 -4.8830308e-002 -4.8946784e-002
 -4.1060634e-002 -4.5988595e-002
 -3.4533524e-002 -4.5336702e-002
 -3.3041651e-002 -4.5112013e-002
 -3.8037326e-002 -4.4101354e-002
 -4.7307268e-002 -4.2565013e-002
 -5.5880459e-002 -4.1647706e-002
 -5.8804964e-002 -4.2014444e-002
 -5.4168463e-002 -4.3028622e-002
 -4.4247681e-002 -4.3089510e-002
 -3.4220123e-002 -4.0879840e-002
 -2.9094218e-002 -3.6516660e-002
 -3.0800358e-002 -3.1586498e-002
 -3.7180427e-002 -2.8013806e-002
 -4.3348589e-002 -2.6692589e-002
 -4.4605547e-002 -2.6948594e-002
 -3.9109751e-002 -2.7339061e-002
 -2.9021751e-002 -2.7125675e-002
 -1.9327388e-002 -2.7076387e-002
 -1.5184168e-002 -2.8874976e-002
 -1.9136657e-002 -3.3479898e-002
 -2.9663107e-002 -3.9815561e-002
 -4.1914081e-002 -4.5021215e-002
 -5.0096991e-002 -4.6278882e-002
 -5.0497771e-002 -4.2996329e-002
 -4.3513713e-002 -3.7620658e-002
 -3.3501951e-002 -3.4250092e-002
 -2.6430474e-002 -3.5814829e-002
 -2.6647550e-002 -4.1882588e-002
 -3.4469430e-002 -4.8801365e-002
 -4.6039593e-002 -5.2210493e-002
 -5.5513973e-002 -5.0146382e-002
 -5.8467092e-002 -4.4564156e-002
 -5.4296954e-002 -3.9992140e-002
 -4.6385505e-002 -4.0243459e-002
 -3.9797800e-002 -4.5523127e-002
 -3.8182136e-002 -5.2232333e-002
 -4.1841701e-002 -5.5640035e-002
 -4.8013667e-002 -5.3526048e-002
 -5.2997983e-002 -4.7931558e-002
 -5.4591448e-002 -4.3846562e-002
 -5.3185271e-002 -4.5439589e-002
 -5.0749200e-002 -5.2787786e-002
 -4.9073556e-002 -6.1524790e-002
 -4.8319365e-002 -6.5720287e-002
 -4.7329434e-002 -6.2133689e-002
 -4.4846703e-002 -5.2566803e-002
 -4.0954926e-002 -4.2690950e-002
 -3.7225132e-002 -3.8107944e-002
 -3.5654449e-002 -4.0571207e-002
 -3.7214830e-002 -4.7037879e-002
 -4.1120911e-002 -5.2147711e-002
 -4.5541743e-002 -5.2211740e-002
 -4.8937680e-002 -4.7699572e-002
 -5.0919931e-002 -4.2359052e-002
 -5.2021138e-002 -3.9995698e-002
 -5.2642315e-002 -4.1431395e-002
 -5.2257083e-002 -4.4130415e-002
 -4.9864697e-002 -4.4647500e-002
 -4.5151918e-002 -4.1708777e-002
 -3.9576790e-002 -3.7506433e-002
 -3.6091350e-002 -3.5976057e-002
 -3.7311931e-002 -3.9428319e-002
 -4.3294610e-002 -4.6352835e-002
 -5.0751497e-002 -5.2193159e-002
 -5.4545372e-002 -5.2715378e-002
 -5.0849880e-002 -4.7286452e-002
 -3.9884707e-002 -3.9444477e-002
 -2.6248861e-002 -3.4243825e-002
 -1.6562790e-002 -3.4509322e-002
 -1.5606207e-002 -3.8791976e-002
 -2.3346943e-002 -4.2612458e-002
 -3.4891834e-002 -4.2009306e-002
 -4.3353015e-002 -3.6531255e-002
 -4.3714948e-002 -2.9354324e-002
 -3.5437898e-002 -2.4526608e-002
 -2.2397588e-002 -2.3827276e-002
 -1.0154580e-002 -2.5626074e-002
 -2.5657940e-003 -2.6749275e-002
  3.3713221e-004 -2.5325104e-002
  2.0318348e-003 -2.2220449e-002
  6.9536465e-003 -1.9795360e-002
  1.7526521e-002 -1.9103755e-002
  3.2454580e-002 -1.8356111e-002
  4.7197650e-002 -1.4445665e-002
  5.6389764e-002 -6.3511804e-003
  5.6899391e-002  2.6661066e-003
  4.9578955e-002  6.5639170e-003
  3.8707750e-002  1.1206377e-003
  2.9130760e-002 -1.1902855e-002
  2.3099441e-002 -2.4962823e-002
  1.8718118e-002 -2.9967627e-002
  1.1474463e-002 -2.4877210e-002
 -1.9149856e-003 -1.6302267e-002
 -1.9763771e-002 -1.4888799e-002
 -3.4996997e-002 -2.6552809e-002
 -3.9160476e-002 -4.6262146e-002
 -2.9072655e-002 -6.0470682e-002
 -1.1370335e-002 -5.7489086e-002
 -6.6340549e-004 -3.8363720e-002
 -1.0588605e-002 -1.8599587e-002
 -4.2187006e-002 -1.6753805e-002
 -7.7422996e-002 -3.6204792e-002
 -8.3939012e-002 -5.3528263e-002
 -3.1159120e-002 -2.5259365e-002
  8.9976357e-002  8.6793148e-002
  2.5534496e-001  2.8535420e-001
  4.1277567e-001  5.2260141e-001
  5.0368464e-001  7.1355337e-001
  4.9085854e-001  7.7447619e-001
  3.7749454e-001  6.6616434e-001
  2.0651699e-001  4.1721655e-001
  4.0094086e-002  1.1267008e-001
 -6.9654728e-002 -1.4644298e-001
 -1.0299074e-001 -2.8982017e-001
 -7.6291709e-002 -3.0540122e-001
 -2.7341065e-002 -2.3434211e-001
  7.9925455e-003 -1.3995284e-001
  1.3464244e-002 -7.1646350e-002
 -4.1063854e-003 -4.4577493e-002
 -2.5505360e-002 -4.3846293e-002
 -3.4595997e-002 -4.5119437e-002
 -2.8368888e-002 -3.4986785e-002
 -1.5935604e-002 -1.7580015e-002
 -9.3864094e-003 -6.0395411e-003
 -1.4098566e-002 -8.3145963e-003
 -2.5306210e-002 -1.9336075e-002
 -3.2739567e-002 -2.5295662e-002
 -2.8933555e-002 -1.5392313e-002
 -1.4993309e-002  8.7500493e-003
  3.6511181e-004  3.3764383e-002
  7.2773853e-003  4.4585551e-002
  1.6253944e-003  3.5745743e-002
 -1.2207225e-002  1.5574711e-002
 -2.4548770e-002  7.6743901e-005
 -2.6864115e-002  1.6287789e-003
 -1.7043788e-002  2.0695720e-002
 -1.5818511e-004  4.6429037e-002
  1.5364981e-002  6.5047585e-002
  2.3175365e-002  6.9358405e-002
  2.2491001e-002  6.2629453e-002
  1.7907288e-002  5.4698698e-002
  1.5963074e-002  5.4037103e-002
  2.1179157e-002  6.2081703e-002
  3.3778521e-002  7.3596276e-002
  5.0061914e-002  8.1892147e-002
  6.4867369e-002  8.4314308e-002
  7.4415820e-002  8.3659546e-002
  7.8029494e-002  8.4945815e-002
  7.8130278e-002  9.0682905e-002
  7.8616921e-002  9.8713554e-002
  8.2784416e-002  1.0429345e-001
  9.1449473e-002  1.0429408e-001
  1.0245436e-001  9.9925904e-002
  1.1176870e-001  9.5772799e-002
  1.1560905e-001  9.6037388e-002
  1.1266708e-001  1.0114272e-001
  1.0492105e-001  1.0743429e-001
  9.6607437e-002  1.1013785e-001
  9.1643519e-002  1.0700155e-001
  9.1157482e-002  9.9619616e-002
  9.2504320e-002  9.1496741e-002
  9.0749387e-002  8.4586053e-002
  8.1627212e-002  7.7282843e-002
  6.4285074e-002  6.5576633e-002
  4.1952647e-002  4.6393999e-002
  2.0142668e-002  2.0437573e-002
  3.6836610e-003 -7.7229501e-003
 -5.7844093e-003 -3.2439292e-002
 -1.0276704e-002 -5.0502323e-002
 -1.3670663e-002 -6.2536440e-002
 -1.9139010e-002 -7.1564983e-002
 -2.7434548e-002 -8.0009618e-002
 -3.6894987e-002 -8.7756791e-002
 -4.4903459e-002 -9.2636265e-002
 -4.9517422e-002 -9.2789788e-002
 -5.0311775e-002 -8.8718410e-002
 -4.8112343e-002 -8.3209030e-002
 -4.4165498e-002 -7.9230355e-002
 -3.9447289e-002 -7.7567408e-002
 -3.4591327e-002 -7.6298385e-002
 -3.0206347e-002 -7.2694648e-002
 -2.7052172e-002 -6.5862059e-002
 -2.5709677e-002 -5.7908319e-002
 -2.6134919e-002 -5.2566758e-002
 -2.7529859e-002 -5.2263246e-002
 -2.8717757e-002 -5.5869929e-002
 -2.8839508e-002 -5.9146780e-002
 -2.7965047e-002 -5.7667198e-002
 -2.6963405e-002 -5.0124669e-002
 -2.6853393e-002 -3.9426609e-002
 -2.7909971e-002 -3.0757253e-002
 -2.9321730e-002 -2.7955139e-002
 -2.9500632e-002 -3.0813531e-002
 -2.7059976e-002 -3.5413272e-002
 -2.1566716e-002 -3.6854442e-002
 -1.4193435e-002 -3.2731995e-002
 -7.3895382e-003 -2.4734316e-002
 -3.9955306e-003 -1.7447155e-002
 -5.9064077e-003 -1.5177565e-002
 -1.3069783e-002 -1.9281036e-002
 -2.3036034e-002 -2.7458677e-002
 -3.1791494e-002 -3.5434381e-002
 -3.5532678e-002 -3.9554556e-002
 -3.2653112e-002 -3.8696989e-002
 -2.4975792e-002 -3.4476708e-002
 -1.7015374e-002 -2.9912336e-002
 -1.3498763e-002 -2.7613615e-002
 -1.6404396e-002 -2.8530882e-002
 -2.3518497e-002 -3.1795506e-002
 -2.9530351e-002 -3.5378467e-002
 -2.9490391e-002 -3.7228222e-002
 -2.2316888e-002 -3.6324947e-002
 -1.2052089e-002 -3.3292541e-002
 -5.5305825e-003 -3.0223390e-002
 -7.8529062e-003 -2.9563716e-002
 -1.8484702e-002 -3.2561764e-002
 -3.1079227e-002 -3.8184340e-002
 -3.7303754e-002 -4.3354906e-002
 -3.2321681e-002 -4.4693195e-002
 -1.8446554e-002 -4.0894916e-002
 -3.9261822e-003 -3.4143327e-002
  2.1870630e-003 -2.9241930e-002
 -3.8933023e-003 -3.0608176e-002
 -1.8014323e-002 -3.9023625e-002
 -3.0757732e-002 -5.0554077e-002
 -3.3574857e-002 -5.8645406e-002
 -2.4391258e-002 -5.8255006e-002
 -8.9098480e-003 -4.9437307e-002
  3.0276994e-003 -3.7595957e-002
  3.6393378e-003 -3.0133543e-002
 -8.1043637e-003 -3.1582011e-002
 -2.6337537e-002 -4.0591389e-002
 -4.2191162e-002 -5.0926157e-002
 -4.9019603e-002 -5.5668449e-002
 -4.5474904e-002 -5.1751970e-002
 -3.5030448e-002 -4.1688093e-002
 -2.2996523e-002 -3.1421128e-002
 -1.3469880e-002 -2.6112353e-002
 -7.9803604e-003 -2.6882228e-002
 -6.2613681e-003 -3.0829676e-002
 -7.6240887e-003 -3.3944913e-002
 -1.1595424e-002 -3.4348109e-002
 -1.7513647e-002 -3.3367558e-002
 -2.3938603e-002 -3.3857345e-002
 -2.8893070e-002 -3.7335568e-002
 -3.0985151e-002 -4.2399291e-002
 -3.0456644e-002 -4.5772618e-002
 -2.9106613e-002 -4.4964646e-002
 -2.8947194e-002 -4.0422541e-002
 -3.0632550e-002 -3.5238126e-002
 -3.2875444e-002 -3.2763357e-002
 -3.3708254e-002 -3.4054106e-002
 -3.2151999e-002 -3.7202868e-002
 -2.9226002e-002 -3.9070461e-002
 -2.6943630e-002 -3.7784817e-002
 -2.6389329e-002 -3.4054266e-002
 -2.6414941e-002 -3.0293045e-002
 -2.4508967e-002 -2.8444659e-002
 -1.9226880e-002 -2.8459709e-002
 -1.2324736e-002 -2.8784467e-002
 -8.5247045e-003 -2.8325589e-002
 -1.2361129e-002 -2.7774108e-002
 -2.4421571e-002 -2.9062355e-002
 -3.9747748e-002 -3.3169386e-002
 -5.0284894e-002 -3.8352881e-002
 -4.9818920e-002 -4.0641228e-002
 -3.8145730e-002 -3.6639327e-002
 -2.1332859e-002 -2.6500731e-002
 -7.7137529e-003 -1.4497548e-002
 -2.4166713e-003 -6.2477165e-003
 -4.2572573e-003 -4.4979659e-003
 -7.2394694e-003 -6.9362000e-003
 -5.3995708e-003 -7.8912144e-003
  2.8197525e-003 -2.9508735e-003
  1.3869106e-002  7.1353557e-003
  2.2205766e-002  1.6531907e-002
  2.4430423e-002  1.8508207e-002
  2.0897443e-002  1.0531463e-002
  1.3891779e-002 -3.8437652e-003
  4.2640120e-003 -1.8043554e-002
 -9.7916872e-003 -2.7920696e-002
 -2.9990003e-002 -3.4739725e-002
 -5.3621496e-002 -4.2960244e-002
 -7.2005754e-002 -5.4369956e-002
 -7.4743556e-002 -6.4094143e-002
 -5.8113991e-002 -6.3097464e-002
 -3.1303917e-002 -4.6366102e-002
 -1.4061513e-002 -2.0430897e-002
 -2.4805096e-002 -2.4383552e-003
 -6.5366812e-002 -8.1711462e-003
 -1.1295824e-001 -3.5588922e-002
 -1.2754802e-001 -5.6410715e-002
 -7.2849449e-002 -2.5378643e-002
  5.9805600e-002  9.3910624e-002
  2.3987569e-001  3.0045603e-001
  4.0706382e-001  5.4320950e-001
  4.9851533e-001  7.3611527e-001
  4.7962160e-001  7.9633067e-001
  3.6105292e-001  6.8618798e-001
  1.9238931e-001  4.3487878e-001
  3.6564469e-002  1.2687417e-001
 -6.0272305e-002 -1.3736719e-001
 -8.6963287e-002 -2.8677725e-001
 -6.5106729e-002 -3.0689489e-001
 -3.0628490e-002 -2.3624087e-001
 -1.1781241e-002 -1.3744034e-001
 -1.6431498e-002 -6.2247942e-002
 -3.3980588e-002 -3.0248628e-002
 -4.7698029e-002 -3.0173939e-002
 -4.7587461e-002 -3.7761784e-002
 -3.5661772e-002 -3.5542703e-002
 -2.1935731e-002 -2.1918699e-002
 -1.5745969e-002 -6.6135515e-003
 -1.9303131e-002  7.6884668e-004
 -2.7294014e-002 -8.8895632e-004
 -3.1786205e-002 -4.5712209e-003
 -2.8083515e-002 -2.3305662e-003
 -1.7306467e-002  7.7226716e-003
 -4.6046261e-003  2.0311508e-002
  4.7027535e-003  2.7931734e-002
  8.2492287e-003  2.7347419e-002
  7.0012822e-003  2.2123868e-002
  3.5724464e-003  1.9518063e-002
  4.6496319e-004  2.4628855e-002
 -7.0146906e-004  3.6602053e-002
  1.0358401e-003  4.9797789e-002
  6.3472658e-003  5.8604934e-002
  1.5085725e-002  6.1640232e-002
  2.5502850e-002  6.2169972e-002
  3.4399344e-002  6.4698443e-002
  3.8621561e-002  7.0894362e-002
  3.7430247e-002  7.8389155e-002
  3.3683857e-002  8.3189695e-002
  3.2674272e-002  8.3532765e-002
  3.8978831e-002  8.1739199e-002
  5.3147251e-002  8.2346417e-002
  7.0897106e-002  8.8129993e-002
  8.5605085e-002  9.7483516e-002
  9.2559708e-002  1.0543650e-001
  9.2176268e-002  1.0772201e-001
  8.9702676e-002  1.0446413e-001
  9.1594280e-002  1.0047137e-001
  1.0103869e-001  1.0165342e-001
  1.1558959e-001  1.1023081e-001
  1.2856580e-001  1.2253394e-001
  1.3327705e-001  1.3123800e-001
  1.2717327e-001  1.3055753e-001
  1.1317744e-001  1.2034415e-001
  9.7520695e-002  1.0603725e-001
  8.5772028e-002  9.4444877e-002
  7.9862552e-002  8.8599273e-002
  7.7699203e-002  8.5367149e-002
  7.5232882e-002  7.7771001e-002
  6.9204593e-002  6.0128067e-002
  5.8632423e-002  3.2266270e-002
  4.4474251e-002 -1.1673431e-004
  2.8244115e-002 -2.9143604e-002
  1.1205913e-002 -4.9480197e-002
 -5.3499487e-003 -6.0797411e-002
 -1.9331355e-002 -6.6592804e-002
 -2.7922512e-002 -7.0796151e-002
 -2.9050002e-002 -7.4993357e-002
 -2.3278906e-002 -7.8214624e-002
 -1.4706346e-002 -7.9116132e-002
 -9.4739528e-003 -7.8154448e-002
 -1.2248470e-002 -7.7703292e-002
 -2.2987853e-002 -7.9948296e-002
 -3.6416282e-002 -8.4524835e-002
 -4.4959611e-002 -8.8096404e-002
 -4.3549940e-002 -8.6658181e-002
 -3.3103458e-002 -7.8751475e-002
 -2.0330961e-002 -6.7169637e-002
 -1.3533428e-002 -5.7441544e-002
 -1.7305939e-002 -5.4008759e-002
 -2.9346038e-002 -5.6869446e-002
 -4.1953341e-002 -6.1292701e-002
 -4.6982971e-002 -6.1077803e-002
 -4.1142936e-002 -5.2927669e-002
 -2.8003916e-002 -3.8935393e-002
 -1.5503286e-002 -2.5240108e-002
 -1.0622804e-002 -1.7954696e-002
 -1.5019923e-002 -1.9123119e-002
 -2.4386299e-002 -2.5620599e-002
 -3.1786340e-002 -3.1639659e-002
 -3.2615806e-002 -3.2729630e-002
 -2.7548204e-002 -2.8575140e-002
 -2.1587095e-002 -2.2674850e-002
 -2.0151019e-002 -1.9436307e-002
 -2.5169659e-002 -2.1088990e-002
 -3.3851886e-002 -2.6506817e-002
 -4.0791971e-002 -3.2463298e-002
 -4.1896238e-002 -3.6163862e-002
 -3.7078979e-002 -3.6976713e-002
 -2.9970296e-002 -3.6212499e-002
 -2.5129642e-002 -3.5489522e-002
 -2.4941955e-002 -3.5315534e-002
 -2.8414100e-002 -3.4967557e-002
 -3.2654803e-002 -3.3661313e-002
 -3.5391838e-002 -3.1714063e-002
 -3.6718108e-002 -3.0613648e-002
 -3.8521311e-002 -3.1855631e-002
 -4.2289781e-002 -3.5491149e-002
 -4.7195090e-002 -3.9719735e-002
 -5.0286222e-002 -4.2041550e-002
 -4.8734619e-002 -4.1158538e-002
 -4.2369650e-002 -3.7995931e-002
 -3.4527020e-002 -3.5083289e-002
 -3.0230580e-002 -3.4713765e-002
 -3.2921619e-002 -3.7354145e-002
 -4.1785902e-002 -4.1412838e-002
 -5.1907869e-002 -4.4624760e-002
 -5.7042185e-002 -4.5853146e-002
 -5.3430251e-002 -4.5807411e-002
 -4.2049355e-002 -4.6254445e-002
 -2.7929421e-002 -4.8159709e-002
 -1.7218502e-002 -5.0692790e-002
 -1.3787701e-002 -5.1764479e-002
 -1.7598396e-002 -4.9833264e-002
 -2.5461363e-002 -4.5392316e-002
 -3.3207093e-002 -4.0877016e-002
 -3.8045726e-002 -3.8966199e-002
 -3.9419430e-002 -4.0491993e-002
 -3.8405769e-002 -4.3635719e-002
 -3.6506294e-002 -4.5192474e-002
 -3.4826358e-002 -4.2998924e-002
 -3.3934145e-002 -3.7689340e-002
 -3.4119340e-002 -3.2433941e-002
 -3.5492246e-002 -3.0782399e-002
 -3.7800642e-002 -3.4203245e-002
 -4.0152464e-002 -4.1130281e-002
 -4.1011923e-002 -4.7962492e-002
 -3.8979822e-002 -5.1477901e-002
 -3.3682890e-002 -5.0652213e-002
 -2.6360273e-002 -4.6916346e-002
 -1.9502685e-002 -4.2751121e-002
 -1.5752709e-002 -4.0025440e-002
 -1.6727498e-002 -3.9260689e-002
 -2.2229326e-002 -4.0076536e-002
 -3.0348824e-002 -4.1988296e-002
 -3.8151880e-002 -4.4679379e-002
 -4.2887742e-002 -4.7642471e-002
 -4.2924494e-002 -4.9581530e-002
 -3.8243209e-002 -4.8697680e-002
 -3.0550232e-002 -4.3975093e-002
 -2.2717326e-002 -3.6549924e-002
 -1.7799102e-002 -2.9733289e-002
 -1.7763628e-002 -2.7251601e-002
 -2.2634539e-002 -3.0680680e-002
 -3.0478391e-002 -3.8061260e-002
 -3.8406300e-002 -4.4871766e-002
 -4.4038901e-002 -4.6978939e-002
 -4.6607446e-002 -4.3483980e-002
 -4.6935024e-002 -3.7297048e-002
 -4.6494268e-002 -3.2916887e-002
 -4.6066344e-002 -3.2916631e-002
 -4.5225271e-002 -3.6007623e-002
 -4.2766374e-002 -3.8067762e-002
 -3.7865742e-002 -3.5452351e-002
 -3.0716182e-002 -2.7830266e-002
 -2.2414892e-002 -1.8374895e-002
 -1.3922000e-002 -1.1044837e-002
 -5.3242553e-003 -7.3204798e-003
  4.0437729e-003 -5.1300939e-003
  1.4335841e-002 -1.1599853e-003
  2.4189445e-002  5.4969444e-003
  3.0750701e-002  1.1516941e-002
  3.1169545e-002  1.1460805e-002
  2.4539421e-002  2.3898184e-003
  1.2637459e-002 -1.2810987e-002
 -1.1561226e-003 -2.6557554e-002
 -1.4049378e-002 -3.1971354e-002
 -2.5238317e-002 -2.8572869e-002
 -3.5359372e-002 -2.3338986e-002
 -4.4352771e-002 -2.5434231e-002
 -4.9905409e-002 -3.8202872e-002
 -4.8685568e-002 -5.5041473e-002
 -3.9815332e-002 -6.3428404e-002
 -2.8235451e-002 -5.5293427e-002
 -2.3897904e-002 -3.5677300e-002
 -3.5408348e-002 -2.1418734e-002
 -6.1166181e-002 -2.8123383e-002
 -8.4139288e-002 -5.2985183e-002
 -7.6056512e-002 -6.6753548e-002
 -1.1456589e-002 -2.4328746e-002
  1.1510485e-001  1.0831769e-001
  2.7879060e-001  3.2549797e-001
  4.2959282e-001  5.7088073e-001
  5.1250306e-001  7.5502229e-001
  4.9331573e-001  7.9576032e-001
  3.7618846e-001  6.6050634e-001
  2.0305644e-001  3.8652639e-001
  3.4229990e-002  6.6258211e-002
 -7.9197316e-002 -1.9520169e-001
 -1.1661123e-001 -3.2762084e-001
 -9.2098876e-002 -3.2271570e-001
 -4.1245068e-002 -2.2813182e-001
  3.3633742e-004 -1.1492063e-001
  1.4091139e-002 -3.9007682e-002
  2.9401108e-003 -1.8261733e-002
 -1.7019124e-002 -3.4808757e-002
 -2.9773010e-002 -5.6091946e-002
 -2.8935116e-002 -5.8722459e-002
 -1.8603252e-002 -4.0158850e-002
 -7.3043849e-003 -1.4057099e-002
 -1.0059962e-003  3.6765533e-003
 -2.6598845e-006  6.8821173e-003
 -9.5680390e-004  1.2774767e-003
 -1.2279905e-003 -2.6151766e-003
 -1.3237743e-003  1.4220889e-003
 -3.6861509e-003  1.1272057e-002
 -9.3151073e-003  1.9785019e-002
 -1.5620960e-002  2.1605392e-002
 -1.7560535e-002  1.7580886e-002
 -1.1412751e-002  1.3593562e-002
  2.0765067e-003  1.5501669e-002
  1.7584958e-002  2.4475526e-002
  2.8539736e-002  3.6531488e-002
  3.1644875e-002  4.6260274e-002
  2.9042145e-002  5.1228921e-002
  2.6584042e-002  5.3418996e-002
  2.9456505e-002  5.6791431e-002
  3.8500656e-002  6.3426999e-002
  4.9803226e-002  7.1600104e-002
  5.7944211e-002  7.7475611e-002
  6.0276792e-002  7.8856755e-002
  5.9194822e-002  7.7690214e-002
  6.0530849e-002  7.8939910e-002
  6.9302198e-002  8.6672370e-002
  8.5779546e-002  1.0024581e-001
  1.0473113e-001  1.1394017e-001
  1.1852368e-001  1.2058433e-001
  1.2200498e-001  1.1658481e-001
  1.1580390e-001  1.0472673e-001
  1.0590265e-001  9.2585467e-002
  9.9838112e-002  8.7733336e-002
  1.0202423e-001  9.3045823e-002
  1.1102994e-001  1.0513425e-001
  1.2067545e-001  1.1684761e-001
  1.2396194e-001  1.2171592e-001
  1.1732057e-001  1.1727608e-001
  1.0252909e-001  1.0530229e-001
  8.5207392e-002  8.9407746e-002
  7.1178794e-002  7.2266155e-002
  6.3081639e-002  5.4523602e-002
  5.9048738e-002  3.5551146e-002
  5.4347047e-002  1.5149627e-002
  4.4550146e-002 -5.6532572e-003
  2.8311435e-002 -2.5221691e-002
  8.0666051e-003 -4.2582337e-002
 -1.1464569e-002 -5.7967781e-002
 -2.5732929e-002 -7.2049334e-002
 -3.2438463e-002 -8.4607627e-002
 -3.2062631e-002 -9.3932575e-002
 -2.6896273e-002 -9.7675545e-002
 -1.9816019e-002 -9.4811315e-002
 -1.3193966e-002 -8.6917643e-002
 -8.8163705e-003 -7.7856419e-002
 -7.8210961e-003 -7.1656868e-002
 -1.0563800e-002 -7.0198205e-002
 -1.6115768e-002 -7.2234672e-002
 -2.2107256e-002 -7.4497534e-002
 -2.5467836e-002 -7.4090119e-002
 -2.4067703e-002 -7.0290861e-002
 -1.8401705e-002 -6.4694677e-002
 -1.1905252e-002 -5.9729982e-002
 -9.3568445e-003 -5.6790296e-002
 -1.3860430e-002 -5.5380696e-002
 -2.4348018e-002 -5.3720911e-002
 -3.5742889e-002 -5.0276874e-002
 -4.1608603e-002 -4.4876732e-002
 -3.8218017e-002 -3.8574998e-002
 -2.7094332e-002 -3.2802215e-002
 -1.4403211e-002 -2.8438945e-002
 -7.1386297e-003 -2.5582872e-002
 -8.7120564e-003 -2.3991675e-002
 -1.6843029e-002 -2.3586831e-002
 -2.5414271e-002 -2.4508486e-002
 -2.8734200e-002 -2.6588251e-002
 -2.5453482e-002 -2.8941263e-002
 -1.9211242e-002 -3.0232392e-002
 -1.5749470e-002 -2.9622333e-002
 -1.8537704e-002 -2.7584145e-002
 -2.6299267e-002 -2.5894890e-002
 -3.4060595e-002 -2.6503004e-002
 -3.7037261e-002 -3.0167351e-002
 -3.4155552e-002 -3.5778841e-002
 -2.8508038e-002 -4.0852250e-002
 -2.4586994e-002 -4.3054292e-002
 -2.4479998e-002 -4.1520300e-002
 -2.6189381e-002 -3.7183378e-002
 -2.5624112e-002 -3.2000202e-002
 -2.0664342e-002 -2.7885878e-002
 -1.3989066e-002 -2.6110685e-002
 -1.1948901e-002 -2.7463498e-002
 -1.9757331e-002 -3.2335101e-002
 -3.6648463e-002 -4.0484604e-002
 -5.4840196e-002 -5.0315537e-002
 -6.3756533e-002 -5.8659372e-002
 -5.6973757e-002 -6.1682318e-002
 -3.7238097e-002 -5.7153642e-002
 -1.5556439e-002 -4.6541784e-002
 -4.5878971e-003 -3.5125978e-002
 -1.0511625e-002 -2.9502872e-002
 -2.8895528e-002 -3.3413284e-002
 -4.7578216e-002 -4.4895873e-002
 -5.4534104e-002 -5.6913084e-002
 -4.5615873e-002 -6.1518914e-002
 -2.6900048e-002 -5.5082951e-002
 -1.0336612e-002 -4.0971666e-002
 -5.8851791e-003 -2.7609167e-002
 -1.5379520e-002 -2.3059838e-002
 -3.2284011e-002 -2.9825512e-002
 -4.6751989e-002 -4.3383716e-002
 -5.2215683e-002 -5.5535072e-002
 -4.8882045e-002 -6.0044271e-002
 -4.2058337e-002 -5.6531080e-002
 -3.7431733e-002 -5.0003344e-002
 -3.6837737e-002 -4.6446758e-002
 -3.7648445e-002 -4.8061026e-002
 -3.5816758e-002 -5.1788325e-002
 -2.9671806e-002 -5.2140748e-002
 -2.1696581e-002 -4.6074425e-002
 -1.6610950e-002 -3.5858597e-002
 -1.7740997e-002 -2.7706763e-002
 -2.4423670e-002 -2.7135916e-002
 -3.2394131e-002 -3.4643623e-002
 -3.6720604e-002 -4.5114403e-002
 -3.5034991e-002 -5.1486025e-002
 -2.8724775e-002 -4.9932061e-002
 -2.1529199e-002 -4.2588466e-002
 -1.6785725e-002 -3.5667217e-002
 -1.5573731e-002 -3.4609188e-002
 -1.6727701e-002 -3.9909625e-002
 -1.8426491e-002 -4.6919852e-002
 -1.9596881e-002 -4.9566525e-002
 -2.0268424e-002 -4.5151741e-002
 -2.0724760e-002 -3.6424986e-002
 -2.0699003e-002 -2.9355746e-002
 -1.9423341e-002 -2.8452727e-002
 -1.6607900e-002 -3.3366367e-002
 -1.3275220e-002 -3.9416127e-002
 -1.1436571e-002 -4.1457767e-002
 -1.2734131e-002 -3.7884185e-002
 -1.7036844e-002 -3.1655139e-002
 -2.2370041e-002 -2.7583133e-002
 -2.6104631e-002 -2.8238252e-002
 -2.6720318e-002 -3.1769318e-002
 -2.4358564e-002 -3.3384071e-002
 -2.0050658e-002 -2.9242913e-002
 -1.4124182e-002 -1.9461674e-002
 -5.6027732e-003 -7.9118110e-003
  6.6491052e-003  8.8786215e-004
  2.1769637e-002  5.0315292e-003
  3.5951500e-002  6.0470344e-003
  4.3976352e-002  6.7084180e-003
  4.2707735e-002  8.1117318e-003
  3.3896106e-002  8.5728076e-003
  2.3678733e-002  5.4450396e-003
  1.8484587e-002 -1.9283258e-003
  1.9906665e-002 -1.1184537e-002
  2.2618350e-002 -1.8865964e-002
  1.7685208e-002 -2.3756986e-002
 -3.1963500e-004 -2.8177902e-002
 -2.7606565e-002 -3.5526115e-002
 -5.1680580e-002 -4.5915565e-002
 -5.9078725e-002 -5.4136173e-002
 -4.5586260e-002 -5.3029920e-002
 -2.1520217e-002 -4.0641861e-002
 -6.8947982e-003 -2.5150304e-002
 -1.7856111e-002 -2.1271270e-002
 -5.2511688e-002 -3.7859285e-002
 -8.6346660e-002 -6.4194150e-002
 -8.2368071e-002 -6.6610594e-002
 -1.1937121e-002 -2.3686632e-003
  1.2519560e-001  1.5342895e-001
  2.9426341e-001  3.8309320e-001
  4.3774928e-001  6.2140119e-001
  5.0137039e-001  7.7846541e-001
  4.5995604e-001  7.8150538e-001
  3.2955551e-001  6.1343524e-001
  1.5915200e-001  3.2562915e-001
  6.9837439e-003  1.5864745e-002
 -8.5444037e-002 -2.1724983e-001
 -1.0850300e-001 -3.1854086e-001
 -8.2271667e-002 -2.9533290e-001
 -4.0622854e-002 -2.0301939e-001
 -1.1925331e-002 -1.0857958e-001
 -6.9815901e-003 -5.4992906e-002
 -1.9026812e-002 -4.6302444e-002
 -3.3165768e-002 -5.8110175e-002
 -3.7759654e-002 -6.2052491e-002
 -3.0828055e-002 -4.6323378e-002
 -1.8862199e-002 -1.9832116e-002
 -1.0394153e-002 -5.2721008e-004
 -9.7595665e-003  6.8553236e-004
 -1.4796786e-002 -1.1923499e-002
 -1.9526149e-002 -2.3738275e-002
 -1.8913582e-002 -2.2124223e-002
 -1.2339335e-002 -6.0191428e-003
 -3.4326094e-003  1.4243251e-002
  3.0229542e-003  2.5884793e-002
  4.5229991e-003  2.3688065e-002
  2.3543139e-003  1.3456287e-002
  1.6406019e-004  6.7087576e-003
  9.1516699e-004  1.1400646e-002
  4.6323888e-003  2.6114125e-002
  8.6364756e-003  4.1910825e-002
  9.9729625e-003  4.9887565e-002
  8.1732292e-003  4.8156127e-002
  6.1897728e-003  4.2926773e-002
  8.6642199e-003  4.3285894e-002
  1.8568845e-002  5.3906947e-002
  3.4608346e-002  7.1448596e-002
  5.1414833e-002  8.7202628e-002
  6.2866720e-002  9.3608522e-002
  6.6122969e-002  8.9543839e-002
  6.3866339e-002  8.0638870e-002
  6.2665328e-002  7.4746532e-002
  6.8618056e-002  7.6407086e-002
  8.2866878e-002  8.4311592e-002
  1.0032078e-001  9.3243510e-002
  1.1272139e-001  9.8509252e-002
  1.1412740e-001  9.9178382e-002
  1.0519124e-001  9.7965006e-002
  9.3105362e-002  9.8322226e-002
  8.6985655e-002  1.0146924e-001
  9.1736784e-002  1.0571537e-001
  1.0448456e-001  1.0824239e-001
  1.1620448e-001  1.0741461e-001
  1.1757488e-001  1.0366095e-001
  1.0508156e-001  9.8241664e-002
  8.3132887e-002  9.1197100e-002
  6.0965978e-002  8.0641148e-002
  4.6166785e-002  6.3968746e-002
  3.9781788e-002  4.0380483e-002
  3.6034194e-002  1.2324732e-002
  2.7051130e-002 -1.5319925e-002
  9.0362911e-003 -3.7871916e-002
 -1.4579498e-002 -5.3354573e-002
 -3.5181502e-002 -6.3111877e-002
 -4.4717829e-002 -7.0194281e-002
 -4.1187934e-002 -7.6913305e-002
 -2.9830779e-002 -8.3342093e-002
 -1.9560443e-002 -8.7824427e-002
 -1.7215008e-002 -8.8808753e-002
 -2.3685856e-002 -8.6422117e-002
 -3.4295584e-002 -8.2477874e-002
 -4.2889004e-002 -7.9180191e-002
 -4.6074155e-002 -7.7630437e-002
 -4.4897006e-002 -7.7312927e-002
 -4.2715630e-002 -7.6831904e-002
 -4.1786953e-002 -7.5198604e-002
 -4.1274867e-002 -7.2507464e-002
 -3.8248235e-002 -6.9486198e-002
 -3.0842230e-002 -6.6538467e-002
 -2.0590441e-002 -6.3198645e-002
 -1.1987678e-002 -5.8506568e-002
 -9.3242486e-003 -5.2004254e-002
 -1.3300852e-002 -4.4459825e-002
 -2.0033756e-002 -3.7535984e-002
 -2.3529923e-002 -3.2866000e-002
 -1.9890324e-002 -3.0985869e-002
 -1.0094249e-002 -3.1060218e-002
  6.2200551e-004 -3.1497737e-002
  6.3679280e-003 -3.1019164e-002
  4.6201957e-003 -2.9283463e-002
 -2.2950340e-003 -2.6806699e-002
 -9.1514287e-003 -2.4461989e-002
 -1.1791843e-002 -2.3116643e-002
 -9.9505347e-003 -2.3449915e-002
 -7.0771847e-003 -2.5903890e-002
 -7.3814527e-003 -3.0356412e-002
 -1.2429433e-002 -3.5760749e-002
 -1.9784238e-002 -4.0058044e-002
 -2.4599627e-002 -4.0957205e-002
 -2.3014273e-002 -3.7354115e-002
 -1.4946443e-002 -3.0537216e-002
 -4.2964234e-003 -2.4080122e-002
  3.4509643e-003 -2.2068838e-002
  4.5632278e-003 -2.6530065e-002
 -8.6579838e-004 -3.5907257e-002
 -9.1611062e-003 -4.5662637e-002
 -1.5408872e-002 -5.0900864e-002
 -1.6291498e-002 -4.9357824e-002
 -1.1947788e-002 -4.2828189e-002
 -5.8151387e-003 -3.5901462e-002
 -2.7161050e-003 -3.2971040e-002
 -6.1837485e-003 -3.5453542e-002
 -1.6307345e-002 -4.1227354e-002
 -2.9223707e-002 -4.6310310e-002
 -3.8646030e-002 -4.7624299e-002
 -3.9039264e-002 -4.4848949e-002
 -2.8868947e-002 -4.0236674e-002
 -1.2161824e-002 -3.6858882e-002
  3.0541732e-003 -3.6557326e-002
  8.8134216e-003 -3.9147663e-002
  2.0401147e-003 -4.3090010e-002
 -1.3194847e-002 -4.6778002e-002
 -2.7600822e-002 -4.9308506e-002
 -3.2291135e-002 -5.0480778e-002
 -2.4448333e-002 -5.0249370e-002
 -9.6457607e-003 -4.8570058e-002
  1.4170056e-003 -4.5696209e-002
 -1.2152762e-004 -4.2538958e-002
 -1.5237899e-002 -4.0592500e-002
 -3.5790578e-002 -4.0989121e-002
 -4.9486809e-002 -4.3515422e-002
 -4.7703062e-002 -4.6364832e-002
 -3.1214359e-002 -4.7160465e-002
 -9.5718855e-003 -4.4497801e-002
  5.1541686e-003 -3.8879261e-002
  6.1142752e-003 -3.2359954e-002
 -4.4879108e-003 -2.7144949e-002
 -1.7796637e-002 -2.4337522e-002
 -2.5068461e-002 -2.3694886e-002
 -2.3643125e-002 -2.4491998e-002
 -1.8039735e-002 -2.6493369e-002
 -1.5584616e-002 -2.9927449e-002
 -2.0252961e-002 -3.4528359e-002
 -2.9554833e-002 -3.8631539e-002
 -3.6635628e-002 -3.9618647e-002
 -3.5953721e-002 -3.5842491e-002
 -2.7744990e-002 -2.8511948e-002
 -1.7956797e-002 -2.1888946e-002
 -1.3623704e-002 -2.0797924e-002
 -1.7367051e-002 -2.7076790e-002
 -2.5363271e-002 -3.7486883e-002
 -3.0390922e-002 -4.5211707e-002
 -2.7594452e-002 -4.4383816e-002
 -1.8436272e-002 -3.4518770e-002
 -9.6884284e-003 -2.1414313e-002
 -8.3004145e-003 -1.3419106e-002
 -1.6114423e-002 -1.5574320e-002
 -2.8419112e-002 -2.5793642e-002
 -3.7392216e-002 -3.6102741e-002
 -3.7594917e-002 -3.8258261e-002
 -2.9387080e-002 -2.9634127e-002
 -1.7820337e-002 -1.4978265e-002
 -8.1984081e-003 -2.6602049e-003
 -2.1233709e-003  1.6806035e-003
  2.8136693e-003 -9.4146651e-004
  9.8713415e-003 -4.2718057e-003
  1.9432360e-002 -2.3934841e-003
  2.8185905e-002  5.1582174e-003
  3.1753126e-002  1.2970089e-002
  2.8557366e-002  1.4370967e-002
  2.1153115e-002  7.1776474e-003
  1.3679559e-002 -4.4366574e-003
  7.6654028e-003 -1.3748392e-002
  2.1272359e-004 -1.7656493e-002
 -1.3099307e-002 -1.9636740e-002
 -3.2669250e-002 -2.6339701e-002
 -5.1600598e-002 -4.0185884e-002
 -5.9029734e-002 -5.4817641e-002
 -4.8839436e-002 -5.8486518e-002
 -2.7355488e-002 -4.4316206e-002
 -1.2726708e-002 -1.9374387e-002
 -2.3644306e-002 -3.3243561e-003
 -6.3338039e-002 -1.4196694e-002
 -1.1013913e-001 -4.9429994e-002
 -1.2393784e-001 -7.6806433e-002
 -6.7527447e-002 -4.5885407e-002
  6.8258539e-002  8.2370092e-002
  2.5179456e-001  3.0415686e-001
  4.2021709e-001  5.6073580e-001
  5.0828372e-001  7.5760190e-001
  4.8110717e-001  8.0812499e-001
  3.5181387e-001  6.7841259e-001
  1.7411715e-001  4.0743160e-001
  1.4159167e-002  8.9816060e-002
 -8.1526734e-002 -1.6929835e-001
 -1.0433797e-001 -3.0238305e-001
 -7.9489105e-002 -3.0424220e-001
 -4.4939437e-002 -2.2258712e-001
 -2.7984003e-002 -1.2374550e-001
 -3.3421473e-002 -5.6203146e-002
 -4.8050541e-002 -3.2479523e-002
 -5.5163233e-002 -3.5618512e-002
 -4.7528329e-002 -4.0641051e-002
 -3.0672081e-002 -3.4003158e-002
 -1.6106629e-002 -1.9087847e-002
 -1.1483481e-002 -7.6619307e-003
 -1.5332232e-002 -6.9614588e-003
 -1.9725868e-002 -1.3388342e-002
 -1.7552336e-002 -1.6681198e-002
 -8.2210452e-003 -9.5652012e-003
  2.5014654e-003  5.8578751e-003
  7.7404936e-003  1.9974438e-002
  5.0659068e-003  2.3775324e-002
 -1.8361203e-003  1.6268765e-002
 -6.4087592e-003  5.1896759e-003
 -4.3306980e-003  8.3989909e-004
  3.7431995e-003  8.3143994e-003
  1.3591693e-002  2.4233542e-002
  2.1536978e-002  4.0246159e-002
  2.7330350e-002  4.9853503e-002
  3.3593826e-002  5.2876586e-002
  4.2608212e-002  5.4290666e-002
  5.3364186e-002  5.8989141e-002
  6.1796476e-002  6.7215338e-002
  6.4148475e-002  7.4650183e-002
  6.0652871e-002  7.6788851e-002
  5.6346200e-002  7.3666315e-002
  5.7895259e-002  7.0508304e-002
  6.8712128e-002  7.3607337e-002
  8.6086048e-002  8.4765167e-002
  1.0269843e-001  9.9109110e-002
  1.1160419e-001  1.0838653e-001
  1.1108733e-001  1.0731082e-001
  1.0568337e-001  9.7944160e-002
  1.0282248e-001  8.8484108e-002
  1.0747878e-001  8.7218931e-002
  1.1870615e-001  9.6204048e-002
  1.3045495e-001  1.0961814e-001
  1.3603759e-001  1.1815981e-001
  1.3253030e-001  1.1591181e-001
  1.2232910e-001  1.0449391e-001
  1.1085950e-001  9.1326286e-002
  1.0247043e-001  8.3500675e-002
  9.7664481e-002  8.2082677e-002
  9.3425949e-002  8.1304216e-002
  8.5971356e-002  7.3114345e-002
  7.3646820e-002  5.3543220e-002
  5.7798617e-002  2.5855167e-002
  4.1278363e-002 -1.8415994e-003
  2.6196884e-002 -2.2426182e-002
  1.2937887e-002 -3.4408556e-002
  8.7441002e-004 -4.2069727e-002
 -9.9445507e-003 -5.1168008e-002
 -1.8085859e-002 -6.4020361e-002
 -2.1608400e-002 -7.7771722e-002
 -1.9952053e-002 -8.7087681e-002
 -1.5127465e-002 -8.8866686e-002
 -1.1090549e-002 -8.5009451e-002
 -1.1443489e-002 -8.0914908e-002
 -1.7258751e-002 -8.1095206e-002
 -2.6411928e-002 -8.5377697e-002
 -3.4969223e-002 -8.8886942e-002
 -3.9468595e-002 -8.5808457e-002
 -3.8674044e-002 -7.4004591e-002
 -3.3887662e-002 -5.7112407e-002
 -2.7810336e-002 -4.2332246e-002
 -2.3139817e-002 -3.5753531e-002
 -2.1587954e-002 -3.8526248e-002
 -2.3587733e-002 -4.6547674e-002
 -2.8182705e-002 -5.3464013e-002
 -3.2988508e-002 -5.4483013e-002
 -3.4610356e-002 -4.8782803e-002
 -3.0015865e-002 -3.8946332e-002
 -1.8641415e-002 -2.8844359e-002
 -3.8721114e-003 -2.1617691e-002
  7.5999256e-003 -1.8940981e-002
  9.0724040e-003 -2.1158882e-002
 -1.7865063e-003 -2.7380404e-002
 -2.0256821e-002 -3.5192350e-002
 -3.6238644e-002 -4.0735798e-002
 -3.9843006e-002 -4.0115919e-002
 -2.7792760e-002 -3.1848962e-002
 -6.2692547e-003 -1.8753202e-002
  1.2245664e-002 -7.4192730e-003
  1.6515739e-002 -4.7344907e-003
  3.7424743e-003 -1.3431796e-002
 -1.8281754e-002 -2.9736210e-002
 -3.6148057e-002 -4.5245558e-002
 -3.9468445e-002 -5.2140538e-002
 -2.7627335e-002 -4.8280268e-002
 -1.0036373e-002 -3.8460498e-002
  2.4637886e-004 -3.0860149e-002
 -4.7600297e-003 -3.1135595e-002
 -2.2851098e-002 -3.8541362e-002
 -4.3267569e-002 -4.6755207e-002
 -5.3908161e-002 -4.8850420e-002
 -4.8949117e-002 -4.2605293e-002
 -3.2043500e-002 -3.2142109e-002
 -1.3323392e-002 -2.4831724e-002
 -2.8492964e-003 -2.5853672e-002
 -4.8868632e-003 -3.4661277e-002
 -1.6650400e-002 -4.5806602e-002
 -3.1265555e-002 -5.3193427e-002
 -4.2354394e-002 -5.4295712e-002
 -4.6960370e-002 -5.1223828e-002
 -4.5717681e-002 -4.8130550e-002
 -4.0861321e-002 -4.7413310e-002
 -3.4541642e-002 -4.8108249e-002
 -2.8466781e-002 -4.7405320e-002
 -2.4323232e-002 -4.3932798e-002
 -2.3645266e-002 -3.9408153e-002
 -2.6758651e-002 -3.7251124e-002
 -3.1703220e-002 -3.9291299e-002
 -3.4548078e-002 -4.3599604e-002
 -3.1747069e-002 -4.5663367e-002
 -2.3106955e-002 -4.2274010e-002
 -1.3011678e-002 -3.4882676e-002
 -8.2402845e-003 -2.9214068e-002
 -1.3474272e-002 -3.1035634e-002
 -2.7548198e-002 -4.1137854e-002
 -4.3519716e-002 -5.3778747e-002
 -5.3039904e-002 -6.0287187e-002
 -5.2054890e-002 -5.5461991e-002
 -4.3851496e-002 -4.1884110e-002
 -3.6808015e-002 -2.8630584e-002
 -3.8227864e-002 -2.4847754e-002
 -4.8628437e-002 -3.2907525e-002
 -6.0844031e-002 -4.6387930e-002
 -6.4910958e-002 -5.4609335e-002
 -5.5337526e-002 -5.0409339e-002
 -3.5584723e-002 -3.5463200e-002
 -1.6362597e-002 -1.9114932e-002
 -8.7316342e-003 -1.1607713e-002
 -1.6710097e-002 -1.6808693e-002
 -3.4629880e-002 -2.9763150e-002
 -5.1148737e-002 -4.0834266e-002
 -5.6859300e-002 -4.2935953e-002
 -5.0381485e-002 -3.6462074e-002
 -3.8625516e-002 -2.8243482e-002
 -3.1504911e-002 -2.5752136e-002
 -3.4810606e-002 -3.1269767e-002
 -4.6569972e-002 -4.0502317e-002
 -5.8792374e-002 -4.6294129e-002
 -6.3250187e-002 -4.4250353e-002
 -5.7149520e-002 -3.5849816e-002
 -4.4564255e-002 -2.6724274e-002
 -3.3193756e-002 -2.1994066e-002
 -2.8894293e-002 -2.2468067e-002
 -3.1953628e-002 -2.4778771e-002
 -3.7196553e-002 -2.4703193e-002
 -3.7624680e-002 -2.0571689e-002
 -2.8939102e-002 -1.3982906e-002
 -1.2169821e-002 -7.6245338e-003
  7.0993099e-003 -2.6313733e-003
  2.1893266e-002  1.9500634e-003
  2.7515708e-002  7.0402769e-003
  2.3752308e-002  1.1283890e-002
  1.4666986e-002  1.1247234e-002
  6.2913352e-003  4.4977546e-003
  3.0714242e-003 -7.2755585e-003
  5.1894423e-003 -1.8436384e-002
  8.1150338e-003 -2.3689207e-002
  5.1689414e-003 -2.3077161e-002
 -7.9238360e-003 -2.3055577e-002
 -2.9126513e-002 -3.1375012e-002
 -4.9638257e-002 -4.9088319e-002
 -5.8502876e-002 -6.6725129e-002
 -5.0316745e-002 -6.9612251e-002
 -3.0891445e-002 -4.9969113e-002
 -1.6076607e-002 -1.6784905e-002
 -2.2065213e-002  6.5341696e-003
 -5.2122119e-002 -1.3410910e-003
 -8.8193982e-002 -3.8487324e-002
 -9.5353589e-002 -6.9918794e-002
 -3.9445631e-002 -4.0621915e-002
  9.0326757e-002  9.1665544e-002
  2.6765790e-001  3.2230696e-001
  4.3453391e-001  5.8726761e-001
  5.2603539e-001  7.8509972e-001
  5.0224641e-001  8.2486632e-001
  3.6978297e-001  6.7435005e-001
  1.7992390e-001  3.8023839e-001
  3.6931623e-003  4.7409402e-002
 -1.0253357e-001 -2.1172156e-001
 -1.2185397e-001 -3.2931602e-001
 -7.8940926e-002 -3.0716370e-001
 -2.0327803e-002 -2.0358915e-001
  1.3921805e-002 -9.3739918e-002
  1.0083600e-002 -2.9008594e-002
 -1.8159747e-002 -1.8230032e-002
 -4.4813028e-002 -3.6916006e-002
 -5.1079814e-002 -5.3116747e-002
 -3.6236615e-002 -5.0116215e-002
 -1.4445497e-002 -3.2596694e-002
 -2.0473346e-003 -1.6119457e-002
 -5.5783453e-003 -1.1473562e-002
 -1.8952757e-002 -1.6583440e-002
 -3.0246993e-002 -2.0645248e-002
 -3.1714191e-002 -1.5031697e-002
 -2.5109847e-002 -9.9869902e-004
 -1.8618761e-002  1.1929499e-002
 -1.8867020e-002  1.4794732e-002
 -2.4522493e-002  7.5543008e-003
 -2.6970096e-002 -2.1455000e-004
 -1.7479730e-002  3.1914528e-003
  4.9029535e-003  2.2011566e-002
  3.1083946e-002  4.9008403e-002
  4.7336665e-002  7.0139092e-002
  4.4748199e-002  7.4427264e-002
  2.5823440e-002  6.1604435e-002
  3.4581725e-003  4.2167954e-002
 -7.1968186e-003  3.0020304e-002
  1.4681833e-003  3.3286573e-002
  2.4814532e-002  4.9682409e-002
  4.9543241e-002  6.9300422e-002
  6.2734056e-002  8.2003224e-002
  6.0316485e-002  8.3989546e-002
  4.9290871e-002  7.9194866e-002
  4.2554041e-002  7.5427130e-002
  4.9985017e-002  7.8599018e-002
  7.1911794e-002  8.9164124e-002
  9.8990491e-002  1.0271259e-001
  1.1839840e-001  1.1342106e-001
  1.2189633e-001  1.1761261e-001
  1.1070517e-001  1.1517717e-001
  9.4036915e-002  1.0859953e-001
  8.2969908e-002  1.0116586e-001
  8.3617009e-002  9.5545868e-002
  9.3762447e-002  9.3139763e-002
  1.0494761e-001  9.3987828e-002
  1.0804371e-001  9.6547027e-002
  9.8628664e-002  9.7690212e-002
  7.9125119e-002  9.3519609e-002
  5.6520932e-002  8.1086863e-002
  3.7814653e-002  6.0249931e-002
  2.6136340e-002  3.4311683e-002
  1.9795286e-002  8.6694754e-003
  1.4427934e-002 -1.1911161e-002
  6.5944872e-003 -2.5633675e-002
 -3.9725431e-003 -3.4220852e-002
 -1.4620148e-002 -4.1317981e-002
 -2.2027567e-002 -4.9953815e-002
 -2.4833844e-002 -6.0858750e-002
 -2.4599211e-002 -7.2545678e-002
 -2.4613926e-002 -8.2732681e-002
 -2.7579352e-002 -8.9839813e-002
 -3.3705497e-002 -9.3426965e-002
 -4.0655758e-002 -9.3683408e-002
 -4.5215205e-002 -9.0842537e-002
 -4.5460721e-002 -8.5269793e-002
 -4.1777557e-002 -7.7991493e-002
 -3.6253867e-002 -7.0836124e-002
 -3.1024658e-002 -6.5706509e-002
 -2.6903583e-002 -6.3152066e-002
 -2.3300959e-002 -6.1570484e-002
 -1.9268830e-002 -5.8123893e-002
 -1.4862146e-002 -5.0889198e-002
 -1.1561965e-002 -4.0856172e-002
 -1.1229423e-002 -3.1853203e-002
 -1.4572846e-002 -2.8124535e-002
 -2.0297851e-002 -3.1212783e-002
 -2.5677942e-002 -3.8363761e-002
 -2.8183271e-002 -4.4055701e-002
 -2.7111513e-002 -4.3721037e-002
 -2.3994210e-002 -3.7126802e-002
 -2.1536916e-002 -2.8665854e-002
 -2.1704472e-002 -2.4201475e-002
 -2.4401017e-002 -2.6590637e-002
 -2.7620619e-002 -3.3393538e-002
 -2.8687337e-002 -3.8380789e-002
 -2.5948501e-002 -3.6118754e-002
 -1.9675340e-002 -2.6150271e-002
 -1.1895471e-002 -1.3831747e-002
 -5.5378498e-003 -6.9877007e-003
 -3.2092622e-003 -1.0719641e-002
 -6.4070833e-003 -2.4030192e-002
 -1.4940717e-002 -4.0458550e-002
 -2.6667490e-002 -5.2203491e-002
 -3.7776114e-002 -5.4814718e-002
 -4.3721265e-002 -4.9173310e-002
 -4.1200212e-002 -4.0100204e-002
 -3.0119386e-002 -3.2775359e-002
 -1.4590191e-002 -2.9879566e-002
 -1.6164915e-003 -3.0964053e-002
  2.1750653e-003 -3.4032359e-002
 -5.7202972e-003 -3.7553326e-002
 -2.1757024e-002 -4.1087806e-002
 -3.7916214e-002 -4.4631434e-002
 -4.6160037e-002 -4.7663359e-002
 -4.3117652e-002 -4.9071495e-002
 -3.2092219e-002 -4.8180432e-002
 -2.0864526e-002 -4.5780381e-002
 -1.6779243e-002 -4.4001875e-002
 -2.2073518e-002 -4.4837903e-002
 -3.2672227e-002 -4.8297603e-002
 -4.1175519e-002 -5.2119826e-002
 -4.2098326e-002 -5.3307386e-002
 -3.5634023e-002 -5.0628724e-002
 -2.7409672e-002 -4.6029332e-002
 -2.4396114e-002 -4.3524481e-002
 -2.9985603e-002 -4.6310535e-002
 -4.1373388e-002 -5.3976910e-002
 -5.1426245e-002 -6.2206010e-002
 -5.3460489e-002 -6.5341857e-002
 -4.5827638e-002 -6.0272275e-002
 -3.3120770e-002 -4.8870636e-002
 -2.3167931e-002 -3.7052847e-002
 -2.1854165e-002 -3.1065459e-002
 -2.9392538e-002 -3.3567384e-002
 -4.0225522e-002 -4.1966109e-002
 -4.6829392e-002 -5.0251260e-002
 -4.4612949e-002 -5.2991037e-002
 -3.4825649e-002 -4.8748990e-002
 -2.3639577e-002 -4.0798957e-002
 -1.8073923e-002 -3.4727036e-002
 -2.1370439e-002 -3.4667411e-002
 -3.1060676e-002 -4.0694850e-002
 -4.0494808e-002 -4.8863661e-002
 -4.3192865e-002 -5.3749773e-002
 -3.7017140e-002 -5.1834922e-002
 -2.5629694e-002 -4.3679270e-002
 -1.6315849e-002 -3.3678796e-002
 -1.5455556e-002 -2.7544622e-002
 -2.4528069e-002 -2.9025607e-002
 -3.9047918e-002 -3.7672385e-002
 -5.1165822e-002 -4.8872463e-002
 -5.4298695e-002 -5.6229162e-002
 -4.7042843e-002 -5.5055992e-002
 -3.3932035e-002 -4.5189027e-002
 -2.2604712e-002 -3.1353242e-002
 -1.9140738e-002 -2.0654209e-002
 -2.4453411e-002 -1.8499685e-002
 -3.4134661e-002 -2.5380627e-002
 -4.1539728e-002 -3.6493205e-002
 -4.2014002e-002 -4.4599400e-002
 -3.5546176e-002 -4.4538457e-002
 -2.5956946e-002 -3.6275110e-002
 -1.7705674e-002 -2.4655861e-002
 -1.2514943e-002 -1.5822323e-002
 -8.5083714e-003 -1.2967252e-002
 -2.3518357e-003 -1.4433506e-002
  7.3871893e-003 -1.5457340e-002
  1.8558535e-002 -1.2122381e-002
  2.6655714e-002 -4.5074915e-003
  2.8194681e-002  3.4509849e-003
  2.3341705e-002  7.0930250e-003
  1.5634479e-002  4.5948376e-003
  8.7530807e-003 -2.1286462e-003
  3.0734867e-003 -9.7999211e-003
 -4.8191933e-003 -1.7177746e-002
 -1.8684268e-002 -2.6088799e-002
 -3.7754445e-002 -3.8612407e-002
 -5.4974209e-002 -5.2918444e-002
 -6.0792332e-002 -6.1965937e-002
 -5.0926259e-002 -5.7763541e-002
 -3.2264512e-002 -3.9178309e-002
 -2.1118598e-002 -1.6766739e-002
 -3.2814822e-002 -8.6722389e-003
 -6.8098612e-002 -2.7295187e-002
 -1.0604282e-001 -6.4429673e-002
 -1.1054883e-001 -8.6525342e-002
 -4.9428157e-002 -4.7382425e-002
  8.3895701e-002  8.5193366e-002
  2.5960406e-001  3.0310721e-001
  4.2002119e-001  5.4949190e-001
  5.0507612e-001  7.3715048e-001
  4.8148250e-001  7.8740294e-001
  3.5939917e-001  6.6931367e-001
  1.8716278e-001  4.1733577e-001
  2.6981069e-002  1.1662292e-001
 -7.4525045e-002 -1.3652198e-001
 -1.0483453e-001 -2.7743388e-001
 -8.4434675e-002 -2.9659101e-001
 -4.9056660e-002 -2.3323856e-001
 -2.7534758e-002 -1.4623257e-001
 -2.8401419e-002 -8.1263145e-002
 -4.1441792e-002 -5.2895664e-002
 -5.0060504e-002 -4.8415321e-002
 -4.4898908e-002 -4.6267258e-002
 -2.9548637e-002 -3.4259250e-002
 -1.5998069e-002 -1.5948296e-002
 -1.4611927e-002 -3.4907982e-003
 -2.6348899e-002 -4.8976615e-003
 -4.2342750e-002 -1.6434319e-002
 -5.0483090e-002 -2.5340430e-002
 -4.3759845e-002 -1.9907013e-002
 -2.4627526e-002  1.4069620e-003
 -2.8761981e-003  2.8618309e-002
  1.0775891e-002  4.7172588e-002
  1.1053140e-002  4.7859216e-002
  5.5052811e-004  3.2505152e-002
 -1.2661536e-002  1.2096284e-002
 -2.0035793e-002 -7.4671477e-004
 -1.6954775e-002  7.7339305e-004
 -4.2906823e-003  1.4916369e-002
  1.3045852e-002  3.4283885e-002
  2.9039668e-002  5.1204679e-002
  3.9249803e-002  6.1691483e-002
  4.2258446e-002  6.5978347e-002
  3.9730877e-002  6.6538760e-002
  3.5216447e-002  6.5824972e-002
  3.2724068e-002  6.5613008e-002
  3.5111867e-002  6.7423329e-002
  4.3237384e-002  7.2817116e-002
  5.5814142e-002  8.2485755e-002
  7.0189209e-002  9.4844556e-002
  8.3656605e-002  1.0582196e-001
  9.4445331e-002  1.1067333e-001
  1.0201964e-001  1.0703781e-001
  1.0667510e-001  9.7065817e-002
  1.0895404e-001  8.6723231e-002
  1.0955126e-001  8.2443150e-002
  1.0951135e-001  8.7095621e-002
  1.1034496e-001  9.8242386e-002
  1.1337653e-001  1.0976469e-001
  1.1842506e-001  1.1564932e-001
  1.2288808e-001  1.1339559e-001
  1.2230821e-001  1.0471296e-001
  1.1269196e-001  9.3450007e-002
  9.3481689e-002  8.2571263e-002
  6.8964711e-002  7.2381795e-002
  4.6740139e-002  6.1048129e-002
  3.3561472e-002  4.6640736e-002
  3.1110021e-002  2.8741917e-002
  3.4517600e-002  8.5548309e-003
  3.4951168e-002 -1.2290684e-002
  2.5060268e-002 -3.2823497e-002
  3.8104746e-003 -5.2604856e-002
 -2.2574403e-002 -7.0651572e-002
 -4.4229912e-002 -8.4682874e-002
 -5.3577435e-002 -9.1805137e-002
 -4.9619701e-002 -9.0465381e-002
 -3.8230265e-002 -8.2357610e-002
 -2.8093722e-002 -7.2427490e-002
 -2.5479080e-002 -6.6470805e-002
 -3.0973182e-002 -6.7787345e-002
 -4.0238223e-002 -7.5095428e-002
 -4.7576244e-002 -8.3251369e-002
 -4.9573450e-002 -8.6447024e-002
 -4.6461385e-002 -8.1781931e-002
 -4.0739286e-002 -7.0832110e-002
 -3.4926819e-002 -5.8425386e-002
 -3.0021479e-002 -4.9456744e-002
 -2.5867040e-002 -4.6109917e-002
 -2.2583855e-002 -4.7247020e-002
 -2.1247865e-002 -4.9825921e-002
 -2.3196461e-002 -5.1103293e-002
 -2.8294661e-002 -4.9823929e-002
 -3.4076608e-002 -4.6082853e-002
 -3.6889639e-002 -4.0434602e-002
 -3.4250328e-002 -3.3320123e-002
 -2.6969072e-002 -2.5414780e-002
 -1.8908735e-002 -1.8273624e-002
 -1.4560141e-002 -1.4186369e-002
 -1.5933818e-002 -1.4906280e-002
 -2.1067213e-002 -2.0003116e-002
 -2.5491583e-002 -2.6437606e-002
 -2.5478527e-002 -3.0060479e-002
 -2.0683467e-002 -2.8246698e-002
 -1.4418314e-002 -2.1958374e-002
 -1.1111279e-002 -1.5497083e-002
 -1.3200521e-002 -1.3836631e-002
 -1.9548680e-002 -1.9251434e-002
 -2.6564303e-002 -2.9647130e-002
 -3.0871812e-002 -3.9846451e-002
 -3.1553226e-002 -4.5012210e-002
 -3.0126709e-002 -4.3699562e-002
 -2.8748606e-002 -3.8496374e-002
 -2.8281750e-002 -3.3845142e-002
 -2.7935282e-002 -3.2814710e-002
 -2.6665244e-002 -3.5114739e-002
 -2.4952680e-002 -3.7828702e-002
 -2.5008912e-002 -3.8068784e-002
 -2.9168557e-002 -3.5379071e-002
 -3.7312127e-002 -3.1942453e-002
 -4.5989114e-002 -3.0660897e-002
 -5.0213936e-002 -3.2683073e-002
 -4.6807239e-002 -3.6425398e-002
 -3.7060151e-002 -3.8934646e-002
 -2.6248214e-002 -3.8382665e-002
 -2.0240654e-002 -3.5690916e-002
 -2.1479272e-002 -3.3878335e-002
 -2.7436327e-002 -3.5624857e-002
 -3.2680282e-002 -4.0930292e-002
 -3.3185600e-002 -4.6992683e-002
 -2.9655779e-002 -5.0256398e-002
 -2.6880237e-002 -4.9132539e-002
 -2.9796912e-002 -4.5234039e-002
 -3.9092294e-002 -4.2116283e-002
 -4.9892125e-002 -4.2439425e-002
 -5.4837886e-002 -4.5799729e-002
 -4.9382055e-002 -4.8966782e-002
 -3.5554235e-002 -4.8441877e-002
 -2.0987212e-002 -4.3246494e-002
 -1.3816259e-002 -3.5838318e-002
 -1.7082192e-002 -3.0332044e-002
 -2.6649573e-002 -2.9473084e-002
 -3.4350499e-002 -3.2675602e-002
 -3.3945957e-002 -3.6636463e-002
 -2.5723228e-002 -3.8046756e-002
 -1.6249932e-002 -3.6208794e-002
 -1.3524729e-002 -3.3559847e-002
 -2.1024119e-002 -3.3602546e-002
 -3.4993658e-002 -3.7876900e-002
 -4.6950377e-002 -4.4495950e-002
 -4.9595333e-002 -4.9397583e-002
 -4.1732351e-002 -4.9265660e-002
 -2.9002067e-002 -4.4045516e-002
 -1.9888069e-002 -3.7026975e-002
 -2.0195788e-002 -3.2564901e-002
 -2.9500651e-002 -3.3029492e-002
 -4.1936478e-002 -3.7398702e-002
 -5.0276343e-002 -4.2313561e-002
 -5.0175181e-002 -4.4542365e-002
 -4.2050296e-002 -4.2967220e-002
 -2.9912904e-002 -3.8687592e-002
 -1.8695928e-002 -3.3554071e-002
 -1.2149405e-002 -2.8702606e-002
 -1.1896211e-002 -2.4232346e-002
 -1.7546174e-002 -2.0065536e-002
 -2.6774268e-002 -1.6832397e-002
 -3.5416450e-002 -1.5651807e-002
 -3.8256469e-002 -1.6707520e-002
 -3.1217551e-002 -1.8205048e-002
 -1.4251343e-002 -1.7027834e-002
  7.1384958e-003 -1.1168499e-002
  2.3856107e-002 -2.0220731e-003
  2.8240234e-002  5.6097498e-003
  1.9214971e-002  6.3735818e-003
  3.8382736e-003 -1.5350171e-003
 -6.9133615e-003 -1.4462873e-002
 -5.7539229e-003 -2.5423411e-002
  5.0030730e-003 -2.9295417e-002
  1.4149014e-002 -2.7089358e-002
  9.3888356e-003 -2.5390727e-002
 -1.2977979e-002 -3.0977176e-002
 -4.3607242e-002 -4.4169274e-002
 -6.5196097e-002 -5.6883766e-002
 -6.4688562e-002 -5.7896222e-002
 -4.4035753e-002 -4.2500889e-002
 -2.1127851e-002 -1.9109187e-002
 -1.8058289e-002 -5.9422363e-003
 -4.3651962e-002 -1.7649949e-002
 -8.2046480e-002 -4.9622984e-002
 -9.6882702e-002 -7.1936857e-002
 -5.1138377e-002 -4.0393218e-002
  6.8342001e-002  7.8315387e-002
  2.3678365e-001  2.8082277e-001
  3.9806086e-001  5.1731053e-001
  4.9004480e-001  7.0672501e-001
  4.7521902e-001  7.7189565e-001
  3.5945779e-001  6.7690260e-001
  1.8854830e-001  4.4634768e-001
  2.4896353e-002  1.5559345e-001
 -8.1999532e-002 -1.0308374e-001
 -1.1541430e-001 -2.6053255e-001
 -9.2321924e-002 -2.9654008e-001
 -4.7837432e-002 -2.3995656e-001
 -1.4055471e-002 -1.4622803e-001
 -5.5506101e-003 -6.7078898e-002
 -1.7889959e-002 -2.8760925e-002
 -3.6606070e-002 -2.8097716e-002
 -4.8818478e-002 -4.4060187e-002
 -4.9963356e-002 -5.4870471e-002
 -4.3278449e-002 -5.0080168e-002
 -3.4678716e-002 -3.2417186e-002
 -2.7836525e-002 -1.1558152e-002
 -2.2851386e-002  3.9421368e-003
 -1.8229568e-002  1.1132829e-002
 -1.3388012e-002  1.2109278e-002
 -9.4714204e-003  1.0721365e-002
 -7.9733749e-003  9.6677561e-003
 -8.9977415e-003  9.8346226e-003
 -1.0830916e-002  1.1302741e-002
 -1.1277656e-002  1.4379203e-002
 -9.4346904e-003  1.9507758e-002
 -6.3483866e-003  2.6440872e-002
 -3.9282989e-003  3.3689383e-002
 -3.1061709e-003  3.9214349e-002
 -2.8368006e-003  4.1813791e-002
 -1.0399385e-003  4.2055114e-002
  3.4497541e-003  4.1957068e-002
  9.7472856e-003  4.3740993e-002
  1.5476862e-002  4.8436793e-002
  1.8857575e-002  5.5515244e-002
  2.0595153e-002  6.3466041e-002
  2.3809296e-002  7.0900650e-002
  3.1949682e-002  7.7120727e-002
  4.6022615e-002  8.1956147e-002
  6.3240943e-002  8.5141530e-002
  7.8661478e-002  8.6300666e-002
  8.8274258e-002  8.5320269e-002
  9.1674677e-002  8.2893374e-002
  9.2249931e-002  8.0499655e-002
  9.4691227e-002  7.9715106e-002
  1.0156975e-001  8.1163472e-002
  1.1146536e-001  8.4096023e-002
  1.2000259e-001  8.6987111e-002
  1.2293648e-001  8.8718509e-002
  1.1905994e-001  8.9371811e-002
  1.1070942e-001  8.9848246e-002
  1.0161447e-001  9.0562537e-002
  9.3761739e-002  9.0270559e-002
  8.5776972e-002  8.6280763e-002
  7.4065665e-002  7.5933235e-002
  5.5875875e-002  5.8580165e-002
  3.2127825e-002  3.6536829e-002
  7.6883039e-003  1.4102414e-002
 -1.1364397e-002 -4.8511831e-003
 -2.1581449e-002 -1.9067002e-002
 -2.4416037e-002 -3.0315254e-002
 -2.5260703e-002 -4.1815463e-002
 -2.9904678e-002 -5.5678769e-002
 -4.0668589e-002 -7.1255829e-002
 -5.4964492e-002 -8.5373595e-002
 -6.7106746e-002 -9.4376274e-002
 -7.2349341e-002 -9.6480125e-002
 -7.0021177e-002 -9.2774674e-002
 -6.3734713e-002 -8.6403993e-002
 -5.8794274e-002 -8.0504873e-002
 -5.8495224e-002 -7.6479174e-002
 -6.2170573e-002 -7.3735792e-002
 -6.6159012e-002 -7.0764381e-002
 -6.6838998e-002 -6.6614651e-002
 -6.3373218e-002 -6.1618025e-002
 -5.8216486e-002 -5.7007807e-002
 -5.4888793e-002 -5.3738363e-002
 -5.5028328e-002 -5.1681002e-002
 -5.6974123e-002 -4.9702127e-002
 -5.7124771e-002 -4.6663212e-002
 -5.3129952e-002 -4.2404294e-002
 -4.6296093e-002 -3.8025518e-002
 -4.1262469e-002 -3.5218900e-002
 -4.2893896e-002 -3.5123046e-002
 -5.2399297e-002 -3.7517924e-002
 -6.5586917e-002 -4.0812561e-002
 -7.4997683e-002 -4.2944351e-002
 -7.4504472e-002 -4.2545062e-002
 -6.3385222e-002 -3.9551840e-002
 -4.7102094e-002 -3.5053682e-002
 -3.4008332e-002 -3.0504693e-002
 -3.0120273e-002 -2.6860170e-002
 -3.5579542e-002 -2.4195272e-002
 -4.4933592e-002 -2.1961205e-002
 -5.1045255e-002 -1.9649546e-002
 -4.9910302e-002 -1.7448288e-002
 -4.2973690e-002 -1.6272340e-002
 -3.5590093e-002 -1.7175693e-002
 -3.3093308e-002 -2.0604130e-002
 -3.7242376e-002 -2.5889191e-002
 -4.5419872e-002 -3.1406480e-002
 -5.2971635e-002 -3.5472288e-002
 -5.6502826e-002 -3.7303024e-002
 -5.5847546e-002 -3.7511362e-002
 -5.3306283e-002 -3.7588130e-002
 -5.1243617e-002 -3.8778915e-002
 -5.0172481e-002 -4.1123956e-002
 -4.8851445e-002 -4.3393008e-002
 -4.6014014e-002 -4.3995099e-002
 -4.2168375e-002 -4.2257669e-002
 -3.9712991e-002 -3.9138653e-002
 -4.1035056e-002 -3.6665130e-002
 -4.6243334e-002 -3.6476045e-002
 -5.2437639e-002 -3.8469272e-002
 -5.5405956e-002 -4.0789238e-002
 -5.2499127e-002 -4.1128497e-002
 -4.4756731e-002 -3.8672786e-002
 -3.6429347e-002 -3.5025948e-002
 -3.2257509e-002 -3.3411531e-002
 -3.4438488e-002 -3.6404345e-002
 -4.1345076e-002 -4.3809133e-002
 -4.8830652e-002 -5.2376467e-002
 -5.3048766e-002 -5.7587035e-002
 -5.2692889e-002 -5.6579668e-002
 -4.9082315e-002 -5.0046320e-002
 -4.4540043e-002 -4.1785630e-002
 -4.0656754e-002 -3.6215597e-002
 -3.7691129e-002 -3.5452278e-002
 -3.5415732e-002 -3.8131793e-002
 -3.4251236e-002 -4.0663350e-002
 -3.5333567e-002 -4.0027749e-002
 -3.9371309e-002 -3.6012556e-002
 -4.5265449e-002 -3.1282409e-002
 -5.0087100e-002 -2.9323977e-002
 -5.0833129e-002 -3.1848934e-002
 -4.6613344e-002 -3.7576214e-002
 -3.9577352e-002 -4.3137002e-002
 -3.3530979e-002 -4.5305918e-002
 -3.1072726e-002 -4.2963014e-002
 -3.1637020e-002 -3.7419857e-002
 -3.2062932e-002 -3.1177257e-002
 -2.9474968e-002 -2.6302843e-002
 -2.4206373e-002 -2.3634585e-002
 -2.0267734e-002 -2.3116324e-002
 -2.2404896e-002 -2.4465628e-002
 -3.2059539e-002 -2.7280451e-002
 -4.5259765e-002 -3.0580770e-002
 -5.4593869e-002 -3.2481219e-002
 -5.4131298e-002 -3.0844604e-002
 -4.3641082e-002 -2.4818578e-002
 -2.8819157e-002 -1.6137709e-002
 -1.7165046e-002 -8.8221631e-003
 -1.2362249e-002 -6.7587152e-003
 -1.1662202e-002 -1.0839533e-002
 -8.4118227e-003 -1.7795355e-002
  2.0574138e-003 -2.2043081e-002
  1.8052665e-002 -1.9489433e-002
  3.1999660e-002 -1.0742540e-002
  3.6092862e-002 -9.8974165e-004
  2.8399360e-002  3.3674887e-003
  1.4692463e-002 -7.3540866e-004
  3.9913278e-003 -1.1050134e-002
  1.1508205e-003 -2.2032040e-002
  2.5803114e-003 -2.9371428e-002
 -8.8089713e-004 -3.3133004e-002
 -1.5564269e-002 -3.6773314e-002
 -3.7861643e-002 -4.2800583e-002
 -5.4708810e-002 -4.8951552e-002
 -5.2787307e-002 -4.8960764e-002
 -3.0351917e-002 -3.8393810e-002
 -2.0775237e-003 -2.1086097e-002
  8.9167043e-003 -9.6378866e-003
 -1.1796829e-002 -1.6968710e-002
 -5.4725553e-002 -4.2833341e-002
 -8.5472556e-002 -6.5130686e-002
 -6.1664093e-002 -4.4993809e-002
  4.0533150e-002  5.3100452e-002
  2.0645106e-001  2.3588599e-001
  3.8343201e-001  4.6618211e-001
  5.0392920e-001  6.7047298e-001
  5.1909494e-001  7.6880798e-001
  4.2375775e-001  7.1288584e-001
  2.5846454e-001  5.1164224e-001
  8.7634555e-002  2.2942348e-001
 -3.2736507e-002 -4.2931922e-002
 -7.9645895e-002 -2.2875059e-001
 -6.7055365e-002 -2.9618054e-001
 -3.0265220e-002 -2.6409915e-001
 -2.3164563e-003 -1.8297145e-001
  2.6286032e-003 -1.0446203e-001
 -9.1467302e-003 -5.7721653e-002
 -2.1983000e-002 -4.3538328e-002
 -2.4396179e-002 -4.5109946e-002
 -1.5963721e-002 -4.5054194e-002
 -4.4623739e-003 -3.6698343e-002
  2.3770366e-003 -2.4260497e-002
  2.9746975e-003 -1.5290069e-002
  1.7619556e-003 -1.2895798e-002
  3.8539576e-003 -1.4001949e-002
  1.0025506e-002 -1.3290950e-002
  1.6307740e-002 -8.3920625e-003
  1.8105826e-002 -1.5094057e-003
  1.5066607e-002  3.4685201e-003
  1.2105101e-002  5.2074430e-003
  1.5613953e-002  6.4774824e-003
  2.7884338e-002  1.1488836e-002
  4.4493253e-002  2.1487047e-002
  5.7172181e-002  3.2842109e-002
  6.0084790e-002  3.9552262e-002
  5.4592304e-002  3.8419808e-002
  4.8825261e-002  3.2509011e-002
  5.1683885e-002  2.9521739e-002
  6.6035231e-002  3.6161852e-002
  8.6026471e-002  5.2539195e-002
  1.0098798e-001  7.1372074e-002
  1.0310068e-001  8.2881524e-002
  9.3441829e-002  8.2012926e-002
  8.1758951e-002  7.2481057e-002
  8.0144952e-002  6.4331185e-002
  9.4720690e-002  6.6599541e-002
  1.2156576e-001  8.0661036e-002
  1.4921488e-001  9.8997985e-002
  1.6622297e-001  1.1053301e-001
  1.6820393e-001  1.0861310e-001
  1.5987491e-001  9.5735874e-002
  1.5097253e-001  8.1709387e-002
  1.4941454e-001  7.6591831e-002
  1.5649709e-001  8.3739883e-002
  1.6722718e-001  9.7912679e-002
  1.7473056e-001  1.0940191e-001
  1.7517109e-001  1.1087534e-001
  1.6949265e-001  1.0175536e-001
  1.6129248e-001  8.7337724e-002
  1.5300643e-001  7.3789150e-002
  1.4369945e-001  6.3296388e-002
  1.3028830e-001  5.3068672e-002
  1.1089578e-001  3.8604654e-002
  8.7533219e-002  1.8252245e-002
  6.5498371e-002 -4.9847493e-003
  5.0113959e-002 -2.5604108e-002
  4.3180765e-002 -3.9915710e-002
  4.1943312e-002 -4.8897234e-002
  4.1477192e-002 -5.7058580e-002
  3.8634950e-002 -6.8393535e-002
  3.4511984e-002 -8.2579951e-002
  3.3413599e-002 -9.4819403e-002
  3.9085665e-002 -9.9524915e-002
  5.1170528e-002 -9.4987042e-002
  6.4633903e-002 -8.5294160e-002
  7.2952912e-002 -7.7677591e-002
  7.2715092e-002 -7.7270474e-002
  6.6275870e-002 -8.3241787e-002
  6.0562611e-002 -8.9216772e-002
  6.2472565e-002 -8.8081546e-002
  7.4112319e-002 -7.7475641e-002
  9.1049114e-002 -6.1938820e-002
  1.0494114e-001 -4.9916617e-002
  1.0866948e-001 -4.7830380e-002
  1.0064499e-001 -5.5436984e-002
  8.5580288e-002 -6.5783152e-002
  7.1488344e-002 -6.9843982e-002
  6.4870122e-002 -6.2605096e-002
  6.7407268e-002 -4.6291326e-002
  7.5646818e-002 -2.8832337e-002
  8.3785133e-002 -1.8543678e-002
  8.7234825e-002 -1.8915830e-002
  8.4867163e-002 -2.6850304e-002
  7.8888960e-002 -3.5215672e-002
  7.2896790e-002 -3.7725573e-002
  6.9545288e-002 -3.2718799e-002
  6.9298879e-002 -2.3634299e-002
  7.0523481e-002 -1.6267718e-002
  7.0705881e-002 -1.4880598e-002
  6.7845897e-002 -1.9760612e-002
  6.1469966e-002 -2.7541521e-002
  5.2822748e-002 -3.3706131e-002
  4.4446553e-002 -3.5356713e-002
  3.9128373e-002 -3.2689500e-002
  3.8492139e-002 -2.8502523e-002
  4.1949666e-002 -2.6302201e-002
  4.6592211e-002 -2.8250151e-002
  4.8352632e-002 -3.4065342e-002
  4.4252245e-002 -4.1294872e-002
  3.4163844e-002 -4.6745317e-002
  2.1342449e-002 -4.8194286e-002
  1.0880421e-002 -4.5485085e-002
  6.9055525e-003 -4.0510998e-002
  1.0185976e-002 -3.6075282e-002
  1.7734900e-002 -3.4272413e-002
  2.4657198e-002 -3.5336068e-002
  2.7028935e-002 -3.7773304e-002
  2.4018720e-002 -3.9627272e-002
  1.7749019e-002 -3.9998322e-002
  1.1394416e-002 -3.9701716e-002
  6.8298609e-003 -4.0621532e-002
  3.6142450e-003 -4.4141565e-002
  1.0692084e-004 -4.9788345e-002
 -4.4774060e-003 -5.5233131e-002
 -8.7341170e-003 -5.7776403e-002
 -9.8500286e-003 -5.6228691e-002
 -5.9026548e-003 -5.1766415e-002
  2.0866598e-003 -4.6984434e-002
  9.9829020e-003 -4.4019126e-002
  1.2820361e-002 -4.3092028e-002
  8.1171395e-003 -4.2637289e-002
 -2.1132914e-003 -4.0995653e-002
 -1.2357768e-002 -3.8072467e-002
 -1.7091088e-002 -3.5691824e-002
 -1.4455982e-002 -3.6105517e-002
 -7.6296309e-003 -3.9838639e-002
 -2.8353705e-003 -4.4832732e-002
 -5.2706313e-003 -4.7713807e-002
 -1.5509516e-002 -4.6428820e-002
 -2.9024858e-002 -4.2145878e-002
 -3.8955912e-002 -3.8749619e-002
 -4.0389577e-002 -4.0005777e-002
 -3.3258016e-002 -4.6435517e-002
 -2.2055539e-002 -5.4344944e-002
 -1.2795182e-002 -5.8149434e-002
 -9.2594147e-003 -5.4341319e-002
 -1.1196229e-002 -4.4285513e-002
 -1.5331113e-002 -3.3631815e-002
 -1.8283458e-002 -2.8628047e-002
 -1.9152650e-002 -3.1968832e-002
 -1.9778976e-002 -4.1002133e-002
 -2.2756477e-002 -4.9629863e-002
 -2.8784319e-002 -5.2392646e-002
 -3.5592593e-002 -4.7786533e-002
 -3.9279986e-002 -3.8583343e-002
 -3.7339035e-002 -2.9317486e-002
 -3.0910521e-002 -2.3162879e-002
 -2.4571613e-002 -2.0509460e-002
 -2.3329884e-002 -1.9878838e-002
 -2.8911567e-002 -1.9799031e-002
 -3.7841909e-002 -1.9848286e-002
 -4.3122829e-002 -2.0011561e-002
 -3.8635548e-002 -1.9470945e-002
 -2.3439929e-002 -1.6494208e-002
 -3.0511610e-003 -1.0079063e-002
  1.3383828e-002 -1.9938723e-003
  1.8564744e-002  3.2025549e-003
  1.1454021e-002  9.0316753e-004
 -2.4351750e-003 -9.6980815e-003
 -1.5043002e-002 -2.3925191e-002
 -2.1435335e-002 -3.4138433e-002
 -2.3033824e-002 -3.5301511e-002
 -2.6069325e-002 -2.9358202e-002
 -3.6141457e-002 -2.4362045e-002
 -5.2962067e-002 -2.8186275e-002
 -6.9495102e-002 -4.1250112e-002
 -7.6852552e-002 -5.4713719e-002
 -7.1802895e-002 -5.6693923e-002
 -6.1181351e-002 -4.2866118e-002
 -5.8856158e-002 -2.2779032e-002
 -7.5683356e-002 -1.4964684e-002
 -1.0856008e-001 -3.1631100e-002
 -1.3629234e-001 -6.2584210e-002
 -1.2726189e-001 -7.1760734e-002
 -5.6593700e-002 -1.3112494e-002
  7.6496429e-002  1.4018780e-001
  2.4158723e-001  3.7012891e-001
  3.8633644e-001  6.0999035e-001
  4.5860769e-001  7.6887438e-001
  4.3064786e-001  7.7423505e-001
  3.1236309e-001  6.0964137e-001
  1.4674929e-001  3.2607578e-001
 -1.0388753e-002  1.9254996e-002
 -1.1504878e-001 -2.1471797e-001
 -1.5181075e-001 -3.2127800e-001
 -1.3481273e-001 -3.0500311e-001
 -9.4948835e-002 -2.1626693e-001
 -6.1691465e-002 -1.1808735e-001
 -4.9783077e-002 -5.3762697e-002
 -5.6768156e-002 -3.2581070e-002
 -7.0052602e-002 -3.7399841e-002
 -7.7466520e-002 -4.4495400e-002
 -7.4316158e-002 -4.0708305e-002
 -6.4001879e-002 -2.8135802e-002
 -5.3398874e-002 -1.6845943e-002
 -4.7469871e-002 -1.3921366e-002
 -4.6530050e-002 -1.7759003e-002
 -4.7324258e-002 -2.0781259e-002
 -4.6141650e-002 -1.6695912e-002
 -4.1365202e-002 -5.6625478e-003
 -3.4025389e-002  6.5837502e-003
 -2.6422303e-002  1.4110864e-002
 -2.0544828e-002  1.5665940e-002
 -1.7220360e-002  1.5064009e-002
 -1.6171558e-002  1.7249559e-002
 -1.6529942e-002  2.3811732e-002
 -1.7160788e-002  3.1768423e-002
 -1.6781245e-002  3.6617797e-002
 -1.4084774e-002  3.6763509e-002
 -8.3620715e-003  3.5382029e-002
 -1.1438714e-004  3.8002813e-002
  8.9577790e-003  4.7767464e-002
  1.6876682e-002  6.2440142e-002
  2.2614790e-002  7.5630638e-002
  2.6834597e-002  8.1552790e-002
  3.1383958e-002  7.9496240e-002
  3.7779152e-002  7.4504121e-002
  4.6009781e-002  7.3710484e-002
  5.4410875e-002  8.1016457e-002
  6.1070900e-002  9.4266452e-002
  6.5506122e-002  1.0697411e-001
  6.9355402e-002  1.1315575e-001
  7.5197757e-002  1.1156481e-001
  8.4309119e-002  1.0610931e-001
  9.5142350e-002  1.0251129e-001
  1.0381576e-001  1.0393760e-001
  1.0643528e-001  1.0893923e-001
  1.0178879e-001  1.1315345e-001
  9.2215288e-002  1.1304342e-001
  8.2093741e-002  1.0852921e-001
  7.4582088e-002  1.0233194e-001
  6.9339696e-002  9.6824334e-002
  6.2794995e-002  9.1179903e-002
  5.0980949e-002  8.1468886e-002
  3.2999929e-002  6.3774339e-002
  1.2305449e-002  3.7920293e-002
 -5.1275381e-003  8.6576960e-003
 -1.4722360e-002 -1.6890618e-002
 -1.6628846e-002 -3.3968581e-002
 -1.6050375e-002 -4.3483137e-002
 -1.9982034e-002 -5.1209413e-002
 -3.2705246e-002 -6.3369975e-002
 -5.2895873e-002 -8.1637017e-002
 -7.4316521e-002 -1.0139840e-001
 -8.9633366e-002 -1.1460927e-001
 -9.4712835e-002 -1.1529705e-001
 -9.0772147e-002 -1.0399874e-001
 -8.3051632e-002 -8.7772953e-002
 -7.7183863e-002 -7.5688470e-002
 -7.5777406e-002 -7.3012760e-002
 -7.7403320e-002 -7.8008136e-002
 -7.8399539e-002 -8.3560305e-002
 -7.5760292e-002 -8.2363488e-002
 -6.9280486e-002 -7.2065020e-002
 -6.1575868e-002 -5.6913215e-002
 -5.6367565e-002 -4.4877206e-002
 -5.6249436e-002 -4.2335591e-002
 -6.1519415e-002 -4.9905929e-002
 -7.0307619e-002 -6.2112076e-002
 -7.9686715e-002 -7.0957386e-002
 -8.6753340e-002 -7.0723512e-002
 -8.9221666e-002 -6.1071022e-002
 -8.5940210e-002 -4.6672096e-002
 -7.7346412e-002 -3.3947648e-002
 -6.5732425e-002 -2.7258806e-002
 -5.4756482e-002 -2.6847808e-002
 -4.8143904e-002 -2.9556523e-002
 -4.7611565e-002 -3.1233571e-002
 -5.1610101e-002 -2.9256442e-002
 -5.5878434e-002 -2.3657479e-002
 -5.6102379e-002 -1.6719558e-002
 -5.1008917e-002 -1.1514673e-002
 -4.3821362e-002 -1.0437086e-002
 -4.0532491e-002 -1.4241160e-002
 -4.5898149e-002 -2.1805274e-002
 -5.9668883e-002 -3.0515730e-002
 -7.5878238e-002 -3.7134776e-002
 -8.6005859e-002 -3.9091663e-002
 -8.4455166e-002 -3.5832326e-002
 -7.2440090e-002 -2.9438232e-002
 -5.7538680e-002 -2.3883119e-002
 -4.8967461e-002 -2.3003918e-002
 -5.1460389e-002 -2.8058584e-002
 -6.2202182e-002 -3.6627791e-002
 -7.2893720e-002 -4.3684171e-002
 -7.5653880e-002 -4.4660507e-002
 -6.8717899e-002 -3.8651168e-002
 -5.7783402e-002 -2.9555857e-002
 -5.1928206e-002 -2.3984906e-002
 -5.6976620e-002 -2.7103355e-002
 -7.1018208e-002 -3.9003598e-002
 -8.5435042e-002 -5.4204472e-002
 -9.0726328e-002 -6.4859273e-002
 -8.3088110e-002 -6.5587449e-002
 -6.7164378e-002 -5.6932598e-002
 -5.2916171e-002 -4.4969289e-002
 -4.8847222e-002 -3.7273265e-002
 -5.6321000e-002 -3.7971962e-002
 -6.8998370e-002 -4.5341478e-002
 -7.7479967e-002 -5.3423928e-002
 -7.5846981e-002 -5.6391578e-002
 -6.5322807e-002 -5.2483058e-002
 -5.2879411e-002 -4.4756655e-002
 -4.5899460e-002 -3.8327234e-002
 -4.7245208e-002 -3.6386621e-002
 -5.3801133e-002 -3.8011742e-002
 -5.9546517e-002 -3.9396033e-002
 -6.0403016e-002 -3.7408071e-002
 -5.6880187e-002 -3.2368441e-002
 -5.3026372e-002 -2.8007683e-002
 -5.2745700e-002 -2.8559623e-002
 -5.6509644e-002 -3.5223324e-002
 -6.1302498e-002 -4.4974217e-002
 -6.3289721e-002 -5.2497023e-002
 -6.1207031e-002 -5.4019742e-002
 -5.7429391e-002 -4.9899231e-002
 -5.5808941e-002 -4.4008424e-002
 -5.8305759e-002 -4.0512792e-002
 -6.3064148e-002 -4.0623507e-002
 -6.5794513e-002 -4.1959189e-002
 -6.3240484e-002 -4.0861822e-002
 -5.5967794e-002 -3.5739724e-002
 -4.8257613e-002 -2.8723846e-002
 -4.5005921e-002 -2.4183860e-002
 -4.7983939e-002 -2.5213963e-002
 -5.4572196e-002 -3.1053451e-002
 -5.9822269e-002 -3.7533929e-002
 -6.0333007e-002 -4.0244636e-002
 -5.6825042e-002 -3.7837125e-002
 -5.3379736e-002 -3.2807863e-002
 -5.4048287e-002 -2.9240608e-002
 -5.9479495e-002 -2.9300787e-002
 -6.6189120e-002 -3.1475749e-002
 -6.9057718e-002 -3.2002928e-002
 -6.4923101e-002 -2.8191680e-002
 -5.4609660e-002 -2.0787706e-002
 -4.1892510e-002 -1.3253077e-002
 -3.0403173e-002 -8.5050314e-003
 -2.1320126e-002 -6.1834295e-003
 -1.3512551e-002 -2.9950999e-003
 -5.7341681e-003  3.9654935e-003
  1.2496399e-003  1.3557105e-002
  4.8030641e-003  2.0249482e-002
  2.7030628e-003  1.7887016e-002
 -4.5386034e-003  4.8880383e-003
 -1.3537725e-002 -1.3488500e-002
 -2.0712930e-002 -2.8430881e-002
 -2.5380310e-002 -3.4195991e-002
 -3.0464946e-002 -3.2796235e-002
 -3.9490055e-002 -3.2308113e-002
 -5.2447044e-002 -3.9634312e-002
 -6.4302372e-002 -5.3309416e-002
 -6.8229377e-002 -6.3001132e-002
 -6.2108603e-002 -5.7667176e-002
 -5.2597471e-002 -3.6564733e-002
 -5.2212667e-002 -1.3630095e-002
 -6.9290642e-002 -8.8897982e-003
 -9.7075374e-002 -3.0398077e-002
 -1.1099052e-001 -5.9357565e-002
 -7.8780979e-002 -5.1913777e-002
  1.9924355e-002  3.8264396e-002
  1.7585997e-001  2.2713993e-001
  3.4663383e-001  4.7781607e-001
  4.7215594e-001  7.0588948e-001
  5.0281871e-001  8.1495135e-001
  4.2477252e-001  7.4501863e-001
  2.6788977e-001  5.0678485e-001
  9.1243705e-002  1.8071524e-001
 -4.5785398e-002 -1.2005369e-001
 -1.1050606e-001 -3.0298906e-001
 -1.0765242e-001 -3.3642124e-001
 -6.9598244e-002 -2.5567967e-001
 -3.3906110e-002 -1.3469197e-001
 -2.2657866e-002 -4.2349313e-002
 -3.4807677e-002 -9.6265206e-003
 -5.3748244e-002 -2.4103643e-002
 -6.2304223e-002 -4.9929933e-002
 -5.4605776e-002 -5.6709639e-002
 -3.7834828e-002 -3.7748319e-002
 -2.4625560e-002 -8.5051827e-003
 -2.3124199e-002  9.7691068e-003
 -3.1859842e-002  7.2280814e-003
 -4.2296337e-002 -8.7962789e-003
 -4.5964105e-002 -2.1595903e-002
 -4.0378081e-002 -1.8751968e-002
 -2.9775070e-002 -8.6738870e-004
 -2.0890781e-002  2.0449828e-002
 -1.7638156e-002  3.2468840e-002
 -1.8633950e-002  3.0950444e-002
 -1.9035914e-002  2.2311858e-002
 -1.4869340e-002  1.7515336e-002
 -6.0900354e-003  2.3255999e-002
  3.6512130e-003  3.7286932e-002
  9.9068772e-003  5.1044609e-002
  1.0880431e-002  5.6930932e-002
  8.6290948e-003  5.4202883e-002
  7.5477531e-003  4.9158400e-002
  1.1432703e-002  4.9903718e-002
  2.1140175e-002  5.9975043e-002
  3.4290023e-002  7.5803516e-002
  4.6993732e-002  8.9821412e-002
  5.6077962e-002  9.6295434e-002
  6.0581212e-002  9.5518757e-002
  6.1991233e-002  9.3157493e-002
  6.3254873e-002  9.5645012e-002
  6.7402378e-002  1.0515458e-001
  7.6195731e-002  1.1795205e-001
  8.9250894e-002  1.2709430e-001
  1.0388648e-001  1.2737681e-001
  1.1603829e-001  1.1890827e-001
  1.2198506e-001  1.0689980e-001
  1.2027117e-001  9.8169688e-002
  1.1280163e-001  9.6913760e-002
  1.0412284e-001  1.0253611e-001
  9.8832505e-002  1.1048377e-001
  9.8745973e-002  1.1514513e-001
  1.0142253e-001  1.1258950e-001
  1.0140446e-001  1.0183231e-001
  9.3483456e-002  8.4272712e-002
  7.6041095e-002  6.2388703e-002
  5.2323253e-002  3.8766116e-002
  2.8588384e-002  1.5702026e-002
  1.0382644e-002 -4.9868568e-003
 -7.4785056e-004 -2.2361383e-002
 -7.6705148e-003 -3.6734012e-002
 -1.5117887e-002 -4.9550234e-002
 -2.6040546e-002 -6.2493856e-002
 -3.9406404e-002 -7.6154160e-002
 -5.0996873e-002 -8.9143978e-002
 -5.6454969e-002 -9.8570435e-002
 -5.4512425e-002 -1.0177510e-001
 -4.7958398e-002 -9.8294353e-002
 -4.1656336e-002 -9.0595398e-002
 -3.9158825e-002 -8.2914243e-002
 -4.0422933e-002 -7.8881436e-002
 -4.2208509e-002 -7.9435234e-002
 -4.0850844e-002 -8.2378799e-002
 -3.5221113e-002 -8.3928872e-002
 -2.7795640e-002 -8.1242590e-002
 -2.2891146e-002 -7.4155465e-002
 -2.3482812e-002 -6.5086578e-002
 -2.8807829e-002 -5.7270648e-002
 -3.4824246e-002 -5.2665509e-002
 -3.7036312e-002 -5.0991859e-002
 -3.3728405e-002 -5.0313374e-002
 -2.7255787e-002 -4.8637317e-002
 -2.2523981e-002 -4.5328418e-002
 -2.3507481e-002 -4.1280318e-002
 -3.0320375e-002 -3.7886028e-002
 -3.9005233e-002 -3.5841724e-002
 -4.4046244e-002 -3.4639021e-002
 -4.2075241e-002 -3.3283863e-002
 -3.4087904e-002 -3.1273123e-002
 -2.4603484e-002 -2.9155423e-002
 -1.8535265e-002 -2.8064142e-002
 -1.7889338e-002 -2.8671883e-002
 -2.0394179e-002 -3.0278025e-002
 -2.1292977e-002 -3.1071098e-002
 -1.6882181e-002 -2.9366955e-002
 -7.2805817e-003 -2.5065076e-002
  3.4478362e-003 -1.9993624e-002
  9.8595629e-003 -1.6893206e-002
  8.7101347e-003 -1.7653591e-002
  1.1021781e-003 -2.2075055e-002
 -8.2552801e-003 -2.8033004e-002
 -1.4017910e-002 -3.2973937e-002
 -1.3482913e-002 -3.5678016e-002
 -7.9850310e-003 -3.6968597e-002
 -1.6115887e-003 -3.8797253e-002
  1.8015588e-003 -4.2427026e-002
  1.1688358e-003 -4.7228736e-002
 -1.5012472e-003 -5.0961843e-002
 -2.8804494e-003 -5.1392807e-002
 -8.9991812e-004 -4.8034995e-002
  3.6472138e-003 -4.2744179e-002
  7.7645230e-003 -3.8559062e-002
  8.5581196e-003 -3.7623110e-002
  5.5124732e-003 -3.9771761e-002
  1.1185862e-003 -4.2782508e-002
 -7.6031615e-004 -4.4157053e-002
  2.4042600e-003 -4.3001722e-002
  9.8269346e-003 -4.0677331e-002
  1.7456237e-002 -3.9711238e-002
  2.0446550e-002 -4.1770166e-002
  1.6303517e-002 -4.6359004e-002
  6.8042041e-003 -5.0915593e-002
 -2.6508151e-003 -5.2577581e-002
 -6.0662866e-003 -5.0154452e-002
 -4.8854100e-004 -4.4950012e-002
  1.2078491e-002 -3.9860634e-002
  2.5587835e-002 -3.7528235e-002
  3.3354930e-002 -3.8894802e-002
  3.2042589e-002 -4.2823204e-002
  2.3705493e-002 -4.7044084e-002
  1.4530325e-002 -4.9470420e-002
  1.0983101e-002 -4.9098253e-002
  1.5768031e-002 -4.6051194e-002
  2.6053995e-002 -4.1170697e-002
  3.5204764e-002 -3.5684130e-002
  3.7098857e-002 -3.1050093e-002
  3.0232979e-002 -2.8740472e-002
  1.8980814e-002 -2.9677709e-002
  1.0845977e-002 -3.3597122e-002
  1.1636262e-002 -3.8851894e-002
  2.1555788e-002 -4.3069544e-002
  3.4977699e-002 -4.4493137e-002
  4.4080663e-002 -4.3135391e-002
  4.4059906e-002 -4.0776681e-002
  3.6172097e-002 -3.9595345e-002
  2.6656741e-002 -4.0476469e-002
  2.2208154e-002 -4.2264391e-002
  2.5065940e-002 -4.2866271e-002
  3.1655932e-002 -4.1145362e-002
  3.5588382e-002 -3.8216350e-002
  3.2802791e-002 -3.6831606e-002
  2.5185916e-002 -3.9026629e-002
  1.9465033e-002 -4.3970961e-002
  2.2197114e-002 -4.7877571e-002
  3.4338502e-002 -4.6501153e-002
  4.9550378e-002 -3.8563798e-002
  5.8099243e-002 -2.7328824e-002
  5.3573074e-002 -1.8804937e-002
