 -7.7163371e-002 -7.0595302e-002
 -1.0440452e-001 -1.4049699e-001
 -8.4637470e-002 -2.0604915e-001
  3.3239396e-002 -1.7783963e-001
  2.6282414e-001  1.3348769e-002
  5.5634368e-001  3.5990442e-001
  8.1477192e-001  7.5918079e-001
  9.3172586e-001  1.0528546e+000
  8.4843404e-001  1.1064078e+000
  5.8770472e-001  8.8330905e-001
  2.4552105e-001  4.6851509e-001
 -5.6116490e-002  2.5682822e-002
 -2.2823271e-001 -2.8705979e-001
 -2.5242460e-001 -3.9319041e-001
 -1.7772159e-001 -3.2296811e-001
 -8.2739308e-002 -1.7819826e-001
 -2.8926402e-002 -6.4094907e-002
 -3.2746323e-002 -3.2401690e-002
 -6.9527195e-002 -6.7389927e-002
 -1.0051037e-001 -1.1523590e-001
 -1.0176996e-001 -1.2995561e-001
 -7.6408844e-002 -1.0300232e-001
 -4.5757905e-002 -6.0328700e-002
 -3.0066811e-002 -3.5521549e-002
 -3.4343382e-002 -4.2830314e-002
 -4.8126337e-002 -6.9635861e-002
 -5.6574403e-002 -9.0581429e-002
 -5.2344112e-002 -8.9089595e-002
 -3.9291919e-002 -6.8699869e-002
 -2.6669295e-002 -4.6888393e-002
 -2.0213493e-002 -3.8724926e-002
 -1.8019484e-002 -4.4841483e-002
 -1.3754443e-002 -5.2765747e-002
 -3.4702577e-003 -4.9099419e-002
  1.0539500e-002 -3.1244666e-002
  2.2072321e-002 -8.9325977e-003
  2.7111467e-002  4.9644103e-003
  2.7987867e-002  5.8769095e-003
  3.1739100e-002  1.2542428e-003
  4.3955269e-002  3.6858514e-003
  6.3477459e-002  1.9612256e-002
  8.2774594e-002  4.3509533e-002
  9.4038708e-002  6.2583242e-002
  9.6058981e-002  6.7956451e-002
  9.6069548e-002  6.2900063e-002
  1.0467456e-001  6.0929301e-002
  1.2755559e-001  7.5127401e-002
  1.6041122e-001  1.0724100e-001
  1.9127816e-001  1.4550814e-001
  2.0875689e-001  1.7324768e-001
  2.1013120e-001  1.8159667e-001
  2.0327357e-001  1.7634560e-001
  2.0090572e-001  1.7347284e-001
  2.1151210e-001  1.8678706e-001
  2.3326909e-001  2.1711981e-001
  2.5522403e-001  2.5126370e-001
  2.6446251e-001  2.7125139e-001
  2.5404335e-001  2.6675988e-001
  2.2647095e-001  2.4144193e-001
  1.9094720e-001  2.0895761e-001
  1.5709245e-001  1.8238982e-001
  1.2986038e-001  1.6545985e-001
  1.0853458e-001  1.5176200e-001
  8.9337369e-002  1.3166540e-001
  6.8992033e-002  1.0077907e-001
  4.6563268e-002  6.3305428e-002
  2.3126247e-002  2.8322328e-002
  4.2897361e-004  2.7044338e-003
 -1.9836026e-002 -1.3287261e-002
 -3.5881528e-002 -2.4569180e-002
 -4.5759168e-002 -3.5877734e-002
 -4.8226347e-002 -4.7428566e-002
 -4.4272267e-002 -5.5355281e-002
 -3.7666786e-002 -5.6107503e-002
 -3.3500521e-002 -5.0641907e-002
 -3.5225586e-002 -4.4532784e-002
 -4.2371631e-002 -4.3810076e-002
 -5.0846509e-002 -5.0081227e-002
 -5.5902712e-002 -5.9186006e-002
 -5.5678962e-002 -6.4640625e-002
 -5.2549354e-002 -6.3031847e-002
 -5.1058455e-002 -5.6797760e-002
 -5.4084384e-002 -5.2103514e-002
 -6.0308845e-002 -5.3615182e-002
 -6.5231430e-002 -6.0569858e-002
 -6.4901890e-002 -6.7391895e-002
 -5.9339228e-002 -6.8310246e-002
 -5.2727258e-002 -6.2098223e-002
 -5.0194447e-002 -5.2866501e-002
 -5.3558952e-002 -4.6748741e-002
 -5.9818624e-002 -4.6846610e-002
 -6.3574012e-002 -5.1020362e-002
 -6.1516454e-002 -5.4168352e-002
 -5.5387227e-002 -5.2977151e-002
 -5.0625201e-002 -4.8790441e-002
 -5.1797074e-002 -4.6276769e-002
 -5.8444690e-002 -4.8964616e-002
 -6.5074940e-002 -5.5774846e-002
 -6.5498252e-002 -6.1693333e-002
 -5.8237378e-002 -6.2205995e-002
 -4.8451753e-002 -5.7674249e-002
 -4.4392977e-002 -5.3572931e-002
 -5.0966499e-002 -5.6045619e-002
 -6.5373425e-002 -6.6244919e-002
 -7.8618537e-002 -7.8396202e-002
 -8.2083785e-002 -8.3736628e-002
 -7.4116275e-002 -7.7449281e-002
 -6.1505884e-002 -6.3134074e-002
 -5.4466455e-002 -5.0863122e-002
 -5.8719952e-002 -4.9868613e-002
 -7.0905856e-002 -6.1426172e-002
 -8.0990434e-002 -7.7581384e-002
 -8.0013423e-002 -8.6973740e-002
 -6.7194419e-002 -8.3335731e-002
 -5.0859950e-002 -7.0139670e-002
 -4.2328895e-002 -5.7691012e-002
 -4.7425335e-002 -5.5019559e-002
 -6.2097220e-002 -6.2987792e-002
 -7.5568883e-002 -7.4058764e-002
 -7.8604864e-002 -7.8768812e-002
 -7.0437427e-002 -7.3619648e-002
 -5.9107179e-002 -6.3934193e-002
 -5.4943734e-002 -5.9354140e-002
 -6.2376419e-002 -6.5607093e-002
 -7.6523239e-002 -7.9709786e-002
 -8.7143950e-002 -9.1956712e-002
 -8.6551169e-002 -9.3614924e-002
 -7.5438948e-002 -8.3905999e-002
 -6.2062133e-002 -7.0598222e-002
 -5.5582160e-002 -6.3690415e-002
 -5.8918178e-002 -6.7300103e-002
 -6.6910154e-002 -7.6513654e-002
 -7.1070113e-002 -8.1804696e-002
 -6.6895399e-002 -7.7368062e-002
 -5.7760639e-002 -6.6419996e-002
 -5.2176669e-002 -5.8926657e-002
 -5.6649569e-002 -6.3345655e-002
 -6.9908544e-002 -7.9116111e-002
 -8.3303565e-002 -9.6201750e-002
 -8.7237629e-002 -1.0241568e-001
 -7.8624017e-002 -9.2928282e-002
 -6.3470824e-002 -7.4305907e-002
 -5.2491858e-002 -5.9724381e-002
 -5.3151215e-002 -5.8966554e-002
 -6.4220195e-002 -7.1026348e-002
 -7.6996522e-002 -8.5211429e-002
 -8.2081460e-002 -8.9809885e-002
 -7.6357515e-002 -8.1376466e-002
 -6.4868141e-002 -6.7280422e-002
 -5.6418130e-002 -5.9500462e-002
 -5.6571233e-002 -6.4755554e-002
 -6.3673731e-002 -7.9067613e-002
 -7.0865565e-002 -9.1134058e-002
 -7.2090496e-002 -9.1704445e-002
 -6.7034597e-002 -8.1169241e-002
 -6.1063248e-002 -6.9120833e-002
 -6.0486417e-002 -6.6247118e-002
 -6.7061923e-002 -7.5189068e-002
 -7.6370304e-002 -8.8102675e-002
 -8.1299730e-002 -9.3059936e-002
 -7.7651554e-002 -8.4138234e-002
 -6.7313989e-002 -6.6821069e-002
 -5.6594170e-002 -5.4031024e-002
 -5.1307313e-002 -5.5818049e-002
 -5.2706754e-002 -7.0962504e-002
 -5.7442277e-002 -8.7521820e-002
 -6.1067157e-002 -9.1960646e-002
 -6.1689876e-002 -7.9617134e-002
 -6.0599503e-002 -5.8003700e-002
 -5.9530601e-002 -4.0260370e-002
 -5.7507913e-002 -3.4205944e-002
 -5.0714504e-002 -3.6193030e-002
 -3.6018670e-002 -3.4996845e-002
 -1.5094596e-002 -2.2461885e-002
  4.9534182e-003 -1.7846751e-003
  1.5846616e-002  1.4002852e-002
  1.4371220e-002  1.2661891e-002
  5.4064236e-003 -6.2448569e-003
 -1.3612847e-003 -2.9598871e-002
  9.1829497e-004 -4.0599075e-002
  1.0239495e-002 -3.2710494e-002
  1.6610453e-002 -1.6114745e-002
  9.6979699e-003 -1.0497021e-002
 -1.2420332e-002 -2.9124449e-002
 -4.0732397e-002 -6.6957121e-002
 -6.1544622e-002 -1.0311150e-001
 -6.6848083e-002 -1.1660379e-001
 -6.0492861e-002 -1.0322952e-001
 -5.4696310e-002 -7.9481627e-002
 -5.9183573e-002 -6.9211728e-002
 -7.2089676e-002 -8.3293370e-002
 -8.0985947e-002 -1.0936233e-001
 -7.4406220e-002 -1.2176487e-001
 -5.4577911e-002 -1.0521822e-001
 -3.9146859e-002 -7.2568327e-002
 -4.7086294e-002 -5.8968254e-002
 -7.7084726e-002 -9.2161205e-002
 -9.5492124e-002 -1.5922048e-001
 -4.7536659e-002 -1.9761837e-001
  1.0966828e-001 -1.2484877e-001
  3.7097476e-001  1.0640761e-001
  6.6899319e-001  4.6247747e-001
  8.9615938e-001  8.2645065e-001
  9.5518812e-001  1.0484552e+000
  8.1046986e-001  1.0230852e+000
  5.0992774e-001  7.4850744e-001
  1.6316519e-001  3.3072074e-001
 -1.1229764e-001 -7.0829560e-002
 -2.4604190e-001 -3.2410748e-001
 -2.4050556e-001 -3.8444001e-001
 -1.5599507e-001 -3.0125104e-001
 -6.8109085e-002 -1.7344936e-001
 -2.5555962e-002 -8.6121500e-002
 -3.2223989e-002 -6.8429249e-002
 -5.9338000e-002 -9.4101282e-002
 -7.3952659e-002 -1.1572939e-001
 -6.2486091e-002 -1.0418522e-001
 -3.5133587e-002 -6.5820482e-002
 -1.2455102e-002 -3.0104334e-002
 -7.4817813e-003 -2.2251357e-002
 -1.7156600e-002 -4.3545510e-002
 -2.7674496e-002 -7.2983976e-002
 -2.7147267e-002 -8.5931507e-002
 -1.4660573e-002 -7.3296584e-002
  7.5177854e-004 -4.6453979e-002
  9.0157266e-003 -2.5772867e-002
  7.5157880e-003 -2.3668677e-002
  2.3887963e-003 -3.5949360e-002
  2.4187266e-003 -4.7336733e-002
  1.1393369e-002 -4.5145436e-002
  2.5497237e-002 -2.9278563e-002
  3.7548165e-002 -1.0761864e-002
  4.3845511e-002 -1.1011861e-003
  4.7643199e-002 -1.9842308e-003
  5.6241274e-002 -4.0551102e-003
  7.4421606e-002  4.7169828e-003
  9.9893406e-002  2.8459265e-002
  1.2475883e-001  5.9641631e-002
  1.4170199e-001  8.5117625e-002
  1.4975604e-001  9.6792844e-002
  1.5477077e-001  9.7917786e-002
  1.6439621e-001  9.9986890e-002
  1.8175308e-001  1.1302912e-001
  2.0311994e-001  1.3742859e-001
  2.2134834e-001  1.6390953e-001
  2.3209859e-001  1.8156219e-001
  2.3748822e-001  1.8708371e-001
  2.4403878e-001  1.8755715e-001
  2.5661876e-001  1.9448914e-001
  2.7351869e-001  2.1407589e-001
  2.8697997e-001  2.4165524e-001
  2.8884404e-001  2.6479503e-001
  2.7683786e-001  2.7250062e-001
  2.5633784e-001  2.6310111e-001
  2.3605554e-001  2.4460417e-001
  2.2114566e-001  2.2755392e-001
  2.0925162e-001  2.1636864e-001
  1.9291134e-001  2.0619626e-001
  1.6622969e-001  1.8789416e-001
  1.3055491e-001  1.5642056e-001
  9.4300823e-002  1.1594683e-001
  6.6962451e-002  7.7581288e-002
  5.2154025e-002  5.1381907e-002
  4.5024050e-002  3.9133095e-002
  3.6289450e-002  3.3629137e-002
  1.9644221e-002  2.4806891e-002
 -3.1914847e-003  7.7516695e-003
 -2.3859694e-002 -1.3805815e-002
 -3.4004832e-002 -3.1022903e-002
 -3.1889792e-002 -3.7360925e-002
 -2.3730873e-002 -3.3746866e-002
 -1.8800664e-002 -2.7518613e-002
 -2.2305822e-002 -2.6310000e-002
 -3.1618194e-002 -3.2046144e-002
 -3.8833632e-002 -3.9979885e-002
 -3.7404108e-002 -4.3210139e-002
 -2.7505553e-002 -3.8775600e-002
 -1.5881678e-002 -3.0176750e-002
 -1.0441596e-002 -2.4383144e-002
 -1.4181208e-002 -2.6029544e-002
 -2.3246428e-002 -3.3700572e-002
 -3.0568771e-002 -4.1349454e-002
 -3.1817973e-002 -4.3439130e-002
 -2.8648139e-002 -3.9421389e-002
 -2.6622557e-002 -3.3835227e-002
 -2.9661460e-002 -3.2016822e-002
 -3.5898125e-002 -3.5264172e-002
 -3.8766643e-002 -3.9724768e-002
 -3.2639361e-002 -3.9958086e-002
 -1.8420396e-002 -3.4171750e-002
 -4.1400990e-003 -2.6501491e-002
  3.8248555e-004 -2.4182796e-002
 -8.9792090e-003 -3.1728475e-002
 -2.6934528e-002 -4.6808151e-002
 -4.2058168e-002 -6.1425159e-002
 -4.4963482e-002 -6.7665135e-002
 -3.5216682e-002 -6.3518187e-002
 -2.1723805e-002 -5.4237962e-002
 -1.6053287e-002 -4.8115780e-002
 -2.3721496e-002 -5.0083650e-002
 -3.9939896e-002 -5.8166744e-002
 -5.3154233e-002 -6.5552183e-002
 -5.3635897e-002 -6.6384748e-002
 -4.0792214e-002 -6.0597936e-002
 -2.3703495e-002 -5.3876621e-002
 -1.4537302e-002 -5.2934597e-002
 -1.9853188e-002 -6.0012913e-002
 -3.6112666e-002 -7.1119282e-002
 -5.2530683e-002 -7.9289018e-002
 -5.8918073e-002 -8.0237218e-002
 -5.2581024e-002 -7.5544299e-002
 -3.9460914e-002 -7.1294332e-002
 -2.9300347e-002 -7.3109649e-002
 -2.8736499e-002 -8.1625490e-002
 -3.7264807e-002 -9.2197645e-002
 -4.8845334e-002 -9.8824502e-002
 -5.7091228e-002 -9.8939498e-002
 -5.9686909e-002 -9.5152664e-002
 -5.8818198e-002 -9.2642090e-002
 -5.7996673e-002 -9.4614408e-002
 -5.8315676e-002 -9.9555794e-002
 -5.7443086e-002 -1.0255342e-001
 -5.2139038e-002 -9.9524681e-002
 -4.1957293e-002 -9.0768937e-002
 -3.0869490e-002 -8.1017228e-002
 -2.5182033e-002 -7.6042167e-002
 -2.9168738e-002 -7.8603665e-002
 -4.1675251e-002 -8.6865661e-002
 -5.6396788e-002 -9.6272511e-002
 -6.5649394e-002 -1.0295308e-001
 -6.5088350e-002 -1.0585696e-001
 -5.6156497e-002 -1.0623639e-001
 -4.4892069e-002 -1.0562590e-001
 -3.8004566e-002 -1.0446721e-001
 -3.9070628e-002 -1.0275432e-001
 -4.6923743e-002 -1.0154713e-001
 -5.6913155e-002 -1.0332397e-001
 -6.3802863e-002 -1.1010656e-001
 -6.4380200e-002 -1.2067004e-001
 -5.8672885e-002 -1.2976285e-001
 -4.9449389e-002 -1.3084230e-001
 -4.0652731e-002 -1.2093711e-001
 -3.5579639e-002 -1.0388608e-001
 -3.5500675e-002 -8.8807312e-002
 -3.9292108e-002 -8.4258084e-002
 -4.4204909e-002 -9.2152987e-002
 -4.7484887e-002 -1.0617820e-001
 -4.8013880e-002 -1.1622322e-001
 -4.6861345e-002 -1.1565025e-001
 -4.6209426e-002 -1.0573500e-001
 -4.7121999e-002 -9.3716083e-002
 -4.7931574e-002 -8.6084711e-002
 -4.4834744e-002 -8.2838560e-002
 -3.4585785e-002 -7.7611401e-002
 -1.7600937e-002 -6.3977819e-002
  1.1682264e-003 -4.2570006e-002
  1.4765011e-002 -2.2651799e-002
  1.8753310e-002 -1.6040175e-002
  1.4587788e-002 -2.7625970e-002
  8.8079885e-003 -5.0404419e-002
  8.1971332e-003 -6.9736606e-002
  1.4329074e-002 -7.4278194e-002
  2.1685882e-002 -6.5178253e-002
  2.1325537e-002 -5.5733240e-002
  7.6403663e-003 -6.1071972e-002
 -1.6885726e-002 -8.5627563e-002
 -4.2796077e-002 -1.1855910e-001
 -6.0123186e-002 -1.4145167e-001
 -6.5343690e-002 -1.4275705e-001
 -6.3126620e-002 -1.2722653e-001
 -6.1413516e-002 -1.1213156e-001
 -6.3885435e-002 -1.1258149e-001
 -6.6646965e-002 -1.2800483e-001
 -6.2643147e-002 -1.4197666e-001
 -5.0603317e-002 -1.3726839e-001
 -4.0164334e-002 -1.1458457e-001
 -4.6244494e-002 -9.7825949e-002
 -7.3862191e-002 -1.1719806e-001
 -1.0404705e-001 -1.7911751e-001
 -9.4115866e-002 -2.4548448e-001
  1.9920730e-003 -2.4281643e-001
  2.0179101e-001 -1.0303565e-001
  4.7036406e-001  1.8612675e-001
  7.2308072e-001  5.5456232e-001
  8.5921740e-001  8.6971618e-001
  8.1128298e-001  9.9782205e-001
  5.8263446e-001  8.7346650e-001
  2.5048531e-001  5.3676550e-001
 -6.9464835e-002  1.1494486e-001
 -2.7769997e-001 -2.4149919e-001
 -3.3478074e-001 -4.3118151e-001
 -2.7087000e-001 -4.4189090e-001
 -1.5880498e-001 -3.3939967e-001
 -6.9389110e-002 -2.1742521e-001
 -3.6327363e-002 -1.4290736e-001
 -4.9112646e-002 -1.2885234e-001
 -7.2914087e-002 -1.4526543e-001
 -7.8216667e-002 -1.5334697e-001
 -5.9531783e-002 -1.3584574e-001
 -3.3308256e-002 -1.0423964e-001
 -2.0559949e-002 -8.2761434e-002
 -2.9294710e-002 -8.5564005e-002
 -4.9554746e-002 -1.0562162e-001
 -6.2836100e-002 -1.2220072e-001
 -5.6969380e-002 -1.1868140e-001
 -3.4440788e-002 -9.5398718e-002
 -8.7543333e-003 -6.7884966e-002
  7.0615973e-003 -5.3150707e-002
  1.0022947e-002 -5.6040178e-002
  7.6974258e-003 -6.6474507e-002
  1.0182392e-002 -6.9064595e-002
  2.0982877e-002 -5.6360523e-002
  3.4370511e-002 -3.4774974e-002
  4.1162399e-002 -1.8591962e-002
  3.7824711e-002 -1.7340779e-002
  3.0993499e-002 -2.7205818e-002
  3.3399795e-002 -3.3483424e-002
  5.4140277e-002 -2.2160485e-002
  9.0883505e-002  8.6559105e-003
  1.3019959e-001  4.6522765e-002
  1.5614797e-001  7.3463635e-002
  1.6094254e-001  7.9095778e-002
  1.5010515e-001  6.8069558e-002
  1.3851462e-001  5.6569630e-002
  1.4038021e-001  6.0664341e-002
  1.6042293e-001  8.5240457e-002
  1.9188611e-001  1.2163865e-001
  2.2228139e-001  1.5486889e-001
  2.4196079e-001  1.7432744e-001
  2.4931283e-001  1.8001299e-001
  2.4983348e-001  1.8050351e-001
  2.5063923e-001  1.8519832e-001
  2.5506534e-001  1.9738828e-001
  2.6111049e-001  2.1308036e-001
  2.6386213e-001  2.2537844e-001
  2.5917721e-001  2.2988467e-001
  2.4557807e-001  2.2660990e-001
  2.2352001e-001  2.1744852e-001
  1.9374029e-001  2.0246403e-001
  1.5686778e-001  1.7902989e-001
  1.1481570e-001  1.4500220e-001
  7.2332961e-002  1.0301563e-001
  3.6401906e-002  6.1552229e-002
  1.2863798e-002  3.0792518e-002
  2.3712263e-003  1.5836915e-002
 -1.0488803e-003  1.2610255e-002
 -6.9906333e-003  1.0149559e-002
 -2.2696405e-002 -1.8686029e-003
 -4.8084741e-002 -2.5607074e-002
 -7.5264917e-002 -5.3157405e-002
 -9.3232221e-002 -7.1851232e-002
 -9.4700545e-002 -7.3019146e-002
 -8.0579923e-002 -5.7897402e-002
 -5.9281468e-002 -3.6618851e-002
 -4.1590685e-002 -2.1323019e-002
 -3.4712015e-002 -1.8580666e-002
 -3.9318531e-002 -2.6484675e-002
 -5.0869656e-002 -3.7798066e-002
 -6.3440772e-002 -4.5977304e-002
 -7.3140262e-002 -4.9271521e-002
 -7.8999912e-002 -5.0104724e-002
 -8.1575193e-002 -5.1115267e-002
 -8.1272675e-002 -5.1902281e-002
 -7.7945951e-002 -4.9382715e-002
 -7.1926364e-002 -4.1370812e-002
 -6.4977536e-002 -2.9806735e-002
 -5.9863874e-002 -2.0418956e-002
 -5.8534652e-002 -1.8614922e-002
 -6.0480009e-002 -2.4892905e-002
 -6.2772050e-002 -3.3764612e-002
 -6.2018938e-002 -3.7459343e-002
 -5.6891366e-002 -3.1865451e-002
 -4.9202109e-002 -2.0013899e-002
 -4.2602720e-002 -1.0179283e-002
 -3.9912333e-002 -9.8759768e-003
 -4.1197914e-002 -2.0273936e-002
 -4.4170064e-002 -3.5402606e-002
 -4.6400610e-002 -4.6672844e-002
 -4.7508825e-002 -4.9224101e-002
 -4.9436701e-002 -4.5200923e-002
 -5.4534640e-002 -4.1472168e-002
 -6.3128435e-002 -4.3768375e-002
 -7.2628485e-002 -5.1993208e-002
 -7.9107250e-002 -6.0401720e-002
 -8.0129788e-002 -6.2350800e-002
 -7.6551254e-002 -5.5721032e-002
 -7.1792717e-002 -4.4573406e-002
 -6.9166147e-002 -3.5840250e-002
 -6.9448537e-002 -3.3848781e-002
 -7.0724673e-002 -3.7252506e-002
 -7.0519027e-002 -4.0740237e-002
 -6.8396936e-002 -4.0039042e-002
 -6.6734416e-002 -3.5871399e-002
 -6.8782562e-002 -3.3431030e-002
 -7.5627649e-002 -3.7778755e-002
 -8.4660740e-002 -4.9031256e-002
 -9.1057643e-002 -6.1476350e-002
 -9.1303117e-002 -6.7607239e-002
 -8.6027092e-002 -6.3943944e-002
 -7.9772653e-002 -5.3870904e-002
 -7.7675346e-002 -4.5062017e-002
 -8.1597214e-002 -4.3509291e-002
 -8.8751006e-002 -4.8918677e-002
 -9.3968497e-002 -5.5258860e-002
 -9.3908137e-002 -5.6052161e-002
 -8.9736676e-002 -4.9988521e-002
 -8.6098390e-002 -4.1988718e-002
 -8.7219457e-002 -3.9254029e-002
 -9.3304632e-002 -4.4873705e-002
 -1.0012910e-001 -5.4782635e-002
 -1.0233805e-001 -6.0823470e-002
 -9.7872320e-002 -5.7493892e-002
 -8.9889148e-002 -4.6905966e-002
 -8.4378507e-002 -3.7487225e-002
 -8.5431583e-002 -3.7219479e-002
 -9.1902632e-002 -4.6756701e-002
 -9.8320242e-002 -5.8279681e-002
 -9.9364871e-002 -6.1413283e-002
 -9.4262235e-002 -5.1708742e-002
 -8.7474425e-002 -3.4806099e-002
 -8.4933951e-002 -2.2456197e-002
 -8.8774681e-002 -2.3118964e-002
 -9.4933553e-002 -3.4548044e-002
 -9.5867126e-002 -4.4618324e-002
 -8.6414024e-002 -4.0301801e-002
 -6.8098059e-002 -1.7992362e-002
 -4.8257862e-002  1.3030312e-002
 -3.4584052e-002  3.7029934e-002
 -2.9489726e-002  4.3331393e-002
 -2.8937585e-002  3.3876961e-002
 -2.6829133e-002  2.0681251e-002
 -2.1399978e-002  1.5131635e-002
 -1.7892137e-002  1.7989551e-002
 -2.4747441e-002  1.8669936e-002
 -4.5888136e-002  4.9149116e-003
 -7.5527189e-002 -2.4891347e-002
 -1.0056322e-001 -5.7574728e-002
 -1.0964841e-001 -7.3888171e-002
 -1.0218455e-001 -6.4089515e-002
 -8.9726554e-002 -3.7830642e-002
 -8.7613143e-002 -1.8938234e-002
 -1.0257007e-001 -2.7407794e-002
 -1.2616946e-001 -6.2050596e-002
 -1.4038595e-001 -9.8671543e-002
 -1.3231330e-001 -1.0776458e-001
 -1.0669962e-001 -7.9809319e-002
 -8.4925790e-002 -3.7928132e-002
 -8.8289296e-002 -2.4368101e-002
 -1.1607472e-001 -6.6300226e-002
 -1.3533715e-001 -1.4406233e-001
 -9.3896434e-002 -1.8783910e-001
  4.7279756e-002 -1.1228896e-001
  2.8100503e-001  1.2749669e-001
  5.4290692e-001  4.9336804e-001
  7.3394951e-001  8.6561082e-001
  7.6732793e-001  1.0940451e+000
  6.1435489e-001  1.0730863e+000
  3.2258842e-001  7.9826622e-001
 -5.2154255e-003  3.7096546e-001
 -2.6014017e-001 -5.1925903e-002
 -3.7681910e-001 -3.3442360e-001
 -3.5716086e-001 -4.2102516e-001
 -2.5776256e-001 -3.4869133e-001
 -1.5201924e-001 -2.1025914e-001
 -9.0904792e-002 -9.6062536e-002
 -8.3914249e-002 -4.9532537e-002
 -1.0677557e-001 -5.8992803e-002
 -1.2605340e-001 -8.2925389e-002
 -1.2243125e-001 -8.6144396e-002
 -9.9041679e-002 -6.2053583e-002
 -7.3162524e-002 -2.9797648e-002
 -6.0573875e-002 -1.3745273e-002
 -6.4650368e-002 -2.3227442e-002
 -7.6506086e-002 -4.6993009e-002
 -8.3696260e-002 -6.3902043e-002
 -7.9589776e-002 -5.9669951e-002
 -6.6680722e-002 -3.6554522e-002
 -5.2675744e-002 -9.8027334e-003
 -4.3775415e-002  4.7963172e-003
 -4.0677583e-002  2.0806699e-003
 -3.9729279e-002 -1.0436282e-002
 -3.7130929e-002 -1.9776594e-002
 -3.2122738e-002 -1.7404950e-002
 -2.6659717e-002 -4.1979400e-003
 -2.2453345e-002  1.2312709e-002
 -1.8427676e-002  2.5074114e-002
 -1.1065766e-002  3.2882904e-002
  2.6133869e-003  4.0090009e-002
  2.2065448e-002  5.1665989e-002
  4.2959470e-002  6.8296551e-002
  6.0171327e-002  8.5679315e-002
  7.1658137e-002  9.8518846e-002
  8.0171355e-002  1.0518728e-001
  9.1187074e-002  1.0961038e-001
  1.0876843e-001  1.1854855e-001
  1.3231442e-001  1.3641875e-001
  1.5658876e-001  1.6166487e-001
  1.7512914e-001  1.8751965e-001
  1.8455283e-001  2.0657599e-001
  1.8653708e-001  2.1566154e-001
  1.8631670e-001  2.1760799e-001
  1.8884820e-001  2.1877268e-001
  1.9534943e-001  2.2429458e-001
  2.0263270e-001  2.3458618e-001
  2.0531691e-001  2.4528240e-001
  1.9921534e-001  2.5037211e-001
  1.8353743e-001  2.4602052e-001
  1.6066843e-001  2.3245374e-001
  1.3413232e-001  2.1286830e-001
  1.0648469e-001  1.9069132e-001
  7.8619879e-002  1.6738608e-001
  5.0634972e-002  1.4236543e-001
  2.3127155e-002  1.1471211e-001
 -2.2357566e-003  8.5168424e-002
 -2.3439167e-002  5.6624826e-002
 -3.9422278e-002  3.2758593e-002
 -5.0944529e-002  1.5765541e-002
 -6.0167137e-002  4.9716627e-003
 -6.9282408e-002 -2.6441769e-003
 -7.9143785e-002 -1.0363744e-002
 -8.8867716e-002 -1.9502298e-002
 -9.6574158e-002 -2.8625499e-002
 -1.0075419e-001 -3.4755193e-002
 -1.0121185e-001 -3.5656110e-002
 -9.9115672e-002 -3.1710829e-002
 -9.6229975e-002 -2.6057439e-002
 -9.3912868e-002 -2.2827405e-002
 -9.2608535e-002 -2.4656647e-002
 -9.2077373e-002 -3.1071360e-002
 -9.2018112e-002 -3.8802851e-002
 -9.2494323e-002 -4.3760771e-002
 -9.3930266e-002 -4.3495672e-002
 -9.6634903e-002 -3.8529694e-002
 -1.0030349e-001 -3.1852691e-002
 -1.0378323e-001 -2.6914061e-002
 -1.0545585e-001 -2.5567143e-002
 -1.0405812e-001 -2.7249339e-002
 -9.9454368e-002 -2.9763577e-002
 -9.2932964e-002 -3.1051707e-002
 -8.6827050e-002 -3.0643686e-002
 -8.3578385e-002 -2.9867596e-002
 -8.4578877e-002 -3.0720858e-002
 -8.9353382e-002 -3.4270161e-002
 -9.5539948e-002 -3.9679979e-002
 -9.9902022e-002 -4.4585950e-002
 -9.9872399e-002 -4.6534011e-002
 -9.4991056e-002 -4.4571279e-002
 -8.7440812e-002 -4.0069619e-002
 -8.1192553e-002 -3.6220491e-002
 -7.9979795e-002 -3.6423265e-002
 -8.5137513e-002 -4.2446659e-002
 -9.4591219e-002 -5.3274922e-002
 -1.0374204e-001 -6.5345485e-002
 -1.0796431e-001 -7.4152804e-002
 -1.0533785e-001 -7.6514781e-002
 -9.7898309e-002 -7.2364581e-002
 -9.0534510e-002 -6.4970595e-002
 -8.8047896e-002 -5.9324470e-002
 -9.2033410e-002 -5.9292024e-002
 -9.9800946e-002 -6.5235194e-002
 -1.0603468e-001 -7.3588851e-002
 -1.0624641e-001 -7.8911418e-002
 -9.9782547e-002 -7.7358207e-002
 -9.0319375e-002 -6.9329413e-002
 -8.3372969e-002 -5.9397964e-002
 -8.2568940e-002 -5.3389320e-002
 -8.7217549e-002 -5.4421145e-002
 -9.3055868e-002 -6.0792915e-002
 -9.5589769e-002 -6.7306062e-002
 -9.3602818e-002 -6.9274868e-002
 -9.0108232e-002 -6.6253298e-002
 -8.9852029e-002 -6.2486758e-002
 -9.5239123e-002 -6.3606017e-002
 -1.0376637e-001 -7.1827758e-002
 -1.0928064e-001 -8.3487824e-002
 -1.0646741e-001 -9.1169183e-002
 -9.5327641e-002 -8.9139537e-002
 -8.2092143e-002 -7.8109846e-002
 -7.5328977e-002 -6.5317148e-002
 -7.9804465e-002 -5.9537983e-002
 -9.2528756e-002 -6.4492372e-002
 -1.0417566e-001 -7.5701288e-002
 -1.0528739e-001 -8.3528127e-002
 -9.3056363e-002 -8.0405235e-002
 -7.3724150e-002 -6.6734654e-002
 -5.8551936e-002 -5.0685713e-002
 -5.5941185e-002 -4.1716202e-002
 -6.5403503e-002 -4.2781471e-002
 -7.7751825e-002 -4.7422229e-002
 -8.1391580e-002 -4.4718024e-002
 -7.0319918e-002 -2.8067336e-002
 -4.7854383e-002 -1.2936512e-003
 -2.3779700e-002  2.3206274e-002
 -7.2761979e-003  3.3310940e-002
 -1.0595064e-003  2.6254334e-002
 -1.1338409e-003  1.0563184e-002
 -1.8295958e-003 -9.7924007e-004
 -1.6265661e-003 -1.9865588e-003
 -4.5982988e-003  2.0714220e-003
 -1.6229904e-002 -1.5231894e-003
 -3.7164386e-002 -2.1311152e-002
 -6.0598947e-002 -5.2796617e-002
 -7.6198287e-002 -8.0181341e-002
 -7.7787157e-002 -8.8253795e-002
 -6.8647040e-002 -7.5365671e-002
 -5.9327665e-002 -5.6204425e-002
 -5.9059462e-002 -5.0639058e-002
 -6.7615309e-002 -6.6556193e-002
 -7.4961956e-002 -9.1069482e-002
 -7.0185530e-002 -9.9344889e-002
 -5.3048940e-002 -7.6476916e-002
 -3.7723779e-002 -3.5417250e-002
 -4.2860845e-002 -1.3705642e-002
 -7.2805182e-002 -4.6040044e-002
 -1.0368489e-001 -1.2922216e-001
 -8.8004657e-002 -2.0636112e-001
  1.9922386e-002 -1.8830161e-001
  2.3054662e-001 -6.0427682e-003
  4.9923842e-001  3.3596462e-001
  7.3627997e-001  7.4172611e-001
  8.4578624e-001  1.0586231e+000
  7.7379991e-001  1.1506527e+000
  5.3818550e-001  9.6954319e-001
  2.2222403e-001  5.8203707e-001
 -6.5374852e-002  1.3657058e-001
 -2.4143159e-001 -2.1129602e-001
 -2.8213463e-001 -3.7170492e-001
 -2.2305380e-001 -3.5164901e-001
 -1.2935630e-001 -2.3182767e-001
 -5.6975967e-002 -1.0953749e-001
 -2.7803055e-002 -4.5084467e-002
 -3.0211743e-002 -4.1812928e-002
 -3.8793468e-002 -6.4285529e-002
 -3.6480662e-002 -7.4818636e-002
 -2.4105985e-002 -6.0680160e-002
 -1.3947240e-002 -3.6006765e-002
 -1.5654328e-002 -2.2960324e-002
 -2.6946745e-002 -3.0573529e-002
 -3.5850543e-002 -4.8105716e-002
 -3.1229667e-002 -5.5929883e-002
 -1.2251923e-002 -4.2967223e-002
  1.0931338e-002 -1.5755977e-002
  2.5386631e-002  7.5473424e-003
  2.5568632e-002  1.2370561e-002
  1.7230930e-002 -7.5695893e-004
  1.2381918e-002 -1.7335612e-002
  1.9699943e-002 -2.0967238e-002
  3.8125991e-002 -6.1993159e-003
  5.8400056e-002  1.8028838e-002
  7.1025750e-002  3.6607016e-002
  7.4043811e-002  4.0852384e-002
  7.4403787e-002  3.5163585e-002
  8.2032567e-002  3.2750618e-002
  1.0156939e-001  4.4368007e-002
  1.2833747e-001  6.9401211e-002
  1.5180902e-001  9.6490006e-002
  1.6376396e-001  1.1302179e-001
  1.6491319e-001  1.1536274e-001
  1.6464486e-001  1.1198548e-001
  1.7423474e-001  1.1690527e-001
  1.9843907e-001  1.3862546e-001
  2.3165894e-001  1.7329380e-001
  2.6148569e-001  2.0728741e-001
  2.7702347e-001  2.2711263e-001
  2.7592737e-001  2.2900579e-001
  2.6537259e-001  2.2115251e-001
  2.5661082e-001  2.1718354e-001
  2.5715039e-001  2.2607492e-001
  2.6610951e-001  2.4599708e-001
  2.7564017e-001  2.6622736e-001
  2.7684960e-001  2.7507038e-001
  2.6577157e-001  2.6760642e-001
  2.4525776e-001  2.4778254e-001
  2.2197237e-001  2.2404596e-001
  2.0120882e-001  2.0255968e-001
  1.8339134e-001  1.8325017e-001
  1.6472091e-001  1.6139354e-001
  1.4107493e-001  1.3281433e-001
  1.1214390e-001  9.8369023e-002
  8.2556069e-002  6.4151011e-002
  5.9233385e-002  3.7547074e-002
  4.6797573e-002  2.2162934e-002
  4.4360025e-002  1.5550602e-002
  4.5913515e-002  1.1150654e-002
  4.4042340e-002  2.8200522e-003
  3.4559811e-002 -1.1265422e-002
  1.9040337e-002 -2.7858239e-002
  3.6041593e-003 -4.1226544e-002
 -5.1367519e-003 -4.7011538e-002
 -4.2340346e-003 -4.4731089e-002
  4.0291929e-003 -3.7584580e-002
  1.3967298e-002 -3.0106725e-002
  2.0276111e-002 -2.5471954e-002
  2.1196948e-002 -2.4090557e-002
  1.8950664e-002 -2.4145021e-002
  1.7343087e-002 -2.3435158e-002
  1.8490101e-002 -2.1155739e-002
  2.1186133e-002 -1.8442045e-002
  2.2164068e-002 -1.7318793e-002
  1.9101244e-002 -1.8949350e-002
  1.2909140e-002 -2.2467934e-002
  7.3614521e-003 -2.5369837e-002
  6.1571657e-003 -2.5356875e-002
  9.7084517e-003 -2.2384169e-002
  1.4305576e-002 -1.9276265e-002
  1.4749831e-002 -2.0019077e-002
  8.7181332e-003 -2.6540904e-002
 -6.2558267e-004 -3.6379995e-002
 -6.1863514e-003 -4.3351209e-002
 -1.9829535e-003 -4.1405903e-002
  1.1833468e-002 -2.9393590e-002
  2.7999979e-002 -1.3104960e-002
  3.6421389e-002 -2.5230714e-003
  3.1097055e-002 -5.4559127e-003
  1.4751869e-002 -2.1726472e-002
 -2.4856090e-003 -4.2368647e-002
 -9.7901410e-003 -5.5062134e-002
 -3.1128604e-003 -5.2457410e-002
  1.2013189e-002 -3.7599594e-002
  2.4470305e-002 -2.2185480e-002
  2.5480343e-002 -1.8529857e-002
  1.4706966e-002 -3.0775063e-002
  1.1260789e-004 -5.1720671e-002
 -8.3024417e-003 -6.7847793e-002
 -6.0669935e-003 -6.9006780e-002
  2.8077709e-003 -5.5582804e-002
  9.4932739e-003 -3.7904581e-002
  7.7300753e-003 -2.8256191e-002
 -1.1073124e-003 -3.1736384e-002
 -9.3051019e-003 -4.2909572e-002
 -9.3958607e-003 -5.0771094e-002
 -6.9945785e-004 -4.7990455e-002
  9.6538441e-003 -3.6970074e-002
  1.2363445e-002 -2.7801206e-002
  3.8503539e-003 -2.9690730e-002
 -1.0032522e-002 -4.2872529e-002
 -1.7917225e-002 -5.7747006e-002
 -1.1819033e-002 -6.2343765e-002
  5.9391415e-003 -5.2178277e-002
  2.3357991e-002 -3.4585551e-002
  2.7107130e-002 -2.3570205e-002
  1.2573076e-002 -2.8859713e-002
 -1.2150059e-002 -4.7799809e-002
 -3.1589956e-002 -6.6763433e-002
 -3.3909893e-002 -7.1402708e-002
 -1.9450498e-002 -5.7904218e-002
 -3.8348847e-004 -3.6343027e-002
  8.3228158e-003 -2.3188210e-002
 -8.9172317e-005 -2.8570586e-002
 -1.9415869e-002 -4.8221804e-002
 -3.5416325e-002 -6.6465223e-002
 -3.6566419e-002 -6.8113125e-002
 -2.2482821e-002 -4.9963960e-002
 -3.7392695e-003 -2.2950193e-002
  6.4709152e-003 -3.3144718e-003
  2.4204772e-003  2.1720575e-004
 -1.0014885e-002 -7.0453423e-003
 -1.7920575e-002 -1.0650718e-002
 -1.0941598e-002  8.6782188e-004
  1.1441631e-002  2.5993027e-002
  3.9902962e-002  5.0979779e-002
  6.1897891e-002  6.0485172e-002
  6.9574036e-002  4.9364758e-002
  6.3078176e-002  2.6183653e-002
  4.7995040e-002  5.8271612e-003
  3.0120471e-002 -2.5185245e-003
  1.2297327e-002 -1.9397958e-003
 -4.8157306e-003 -3.6214368e-003
 -2.0091163e-002 -1.5905768e-002
 -3.0995827e-002 -3.6309328e-002
 -3.5770539e-002 -5.3721644e-002
 -3.6442480e-002 -5.8950476e-002
 -3.8680057e-002 -5.3965708e-002
 -4.7163417e-002 -5.0688896e-002
 -5.9913289e-002 -5.9306931e-002
 -6.7485008e-002 -7.6264057e-002
 -5.9789237e-002 -8.4114716e-002
 -3.6622900e-002 -6.6398955e-002
 -1.2723614e-002 -2.6766742e-002
 -1.0173855e-002  5.3475478e-003
 -3.9947635e-002 -7.3659450e-003
 -8.4544956e-002 -7.6645907e-002
 -9.6802477e-002 -1.6368824e-001
 -2.1537032e-002 -1.8623191e-001
  1.6871706e-001 -6.2069640e-002
  4.4529407e-001  2.3337103e-001
  7.2319297e-001  6.3266322e-001
  8.9472541e-001  9.9304589e-001
  8.8173381e-001  1.1618087e+000
  6.7753911e-001  1.0559074e+000
  3.5366640e-001  7.0915150e-001
  2.6168682e-002  2.5762469e-001
 -2.0007359e-001 -1.2936808e-001
 -2.7806046e-001 -3.3286356e-001
 -2.3167373e-001 -3.3472353e-001
 -1.3109600e-001 -2.0941425e-001
 -4.8526471e-002 -6.7910790e-002
 -2.1483879e-002  8.1322625e-003
 -4.2857572e-002  2.5777982e-003
 -7.8404071e-002 -4.4755497e-002
 -9.5829704e-002 -7.9098067e-002
 -8.5246862e-002 -7.1332510e-002
 -5.9998511e-002 -3.2093123e-002
 -4.1563100e-002  4.7522436e-003
 -4.1991566e-002  1.1983479e-002
 -5.6614578e-002 -1.1332439e-002
 -7.0232583e-002 -4.2941742e-002
 -7.0131198e-002 -5.7446512e-002
 -5.5346564e-002 -4.5908575e-002
 -3.5937020e-002 -2.0340363e-002
 -2.4083433e-002 -1.5910343e-003
 -2.4773677e-002 -1.9345504e-003
 -3.2931738e-002 -1.6319701e-002
 -3.8276790e-002 -2.8133740e-002
 -3.3395613e-002 -2.3600487e-002
 -1.8830604e-002 -2.5337339e-003
 -1.7006793e-003  2.2199278e-002
  1.0180928e-002  3.5764792e-002
  1.4074079e-002  3.3340153e-002
  1.3778081e-002  2.3566265e-002
  1.6259329e-002  2.1314412e-002
  2.6610715e-002  3.6065087e-002
  4.4919254e-002  6.4943666e-002
  6.7003472e-002  9.5567738e-002
  8.7695219e-002  1.1579959e-001
  1.0403828e-001  1.2254273e-001
  1.1623613e-001  1.2306964e-001
  1.2642379e-001  1.2857977e-001
  1.3658697e-001  1.4543038e-001
  1.4739138e-001  1.7090712e-001
  1.5834621e-001  1.9623217e-001
  1.6864903e-001  2.1380270e-001
  1.7766662e-001  2.2265574e-001
  1.8477493e-001  2.2817745e-001
  1.8900237e-001  2.3681618e-001
  1.8908441e-001  2.5040787e-001
  1.8402742e-001  2.6451525e-001
  1.7363047e-001  2.7173977e-001
  1.5857834e-001  2.6710104e-001
  1.3988188e-001  2.5118346e-001
  1.1828782e-001  2.2898791e-001
  9.4241458e-002  2.0589290e-001
  6.8446375e-002  1.8417460e-001
  4.2369922e-002  1.6257383e-001
  1.7952217e-002  1.3869488e-001
 -3.4536245e-003  1.1180640e-001
 -2.2058408e-002  8.3727609e-002
 -3.9626868e-002  5.7321333e-002
 -5.8124664e-002  3.4372879e-002
 -7.7847708e-002  1.4877395e-002
 -9.6544182e-002 -1.7830512e-003
 -1.1048055e-001 -1.5163580e-002
 -1.1702271e-001 -2.3569943e-002
 -1.1684616e-001 -2.5793273e-002
 -1.1403770e-001 -2.3318683e-002
 -1.1370662e-001 -2.0654139e-002
 -1.1867055e-001 -2.2917739e-002
 -1.2752891e-001 -3.2104858e-002
 -1.3565010e-001 -4.4975331e-002
 -1.3853957e-001 -5.4648151e-002
 -1.3523268e-001 -5.5208628e-002
 -1.2917338e-001 -4.6088872e-002
 -1.2580225e-001 -3.2853587e-002
 -1.2852911e-001 -2.3536346e-002
 -1.3605974e-001 -2.3059738e-002
 -1.4310253e-001 -2.9801108e-002
 -1.4415282e-001 -3.6968682e-002
 -1.3765224e-001 -3.7826592e-002
 -1.2753629e-001 -3.0894021e-002
 -1.2079031e-001 -2.1080739e-002
 -1.2264987e-001 -1.5883705e-002
 -1.3278722e-001 -1.9495066e-002
 -1.4535520e-001 -2.9380146e-002
 -1.5288148e-001 -3.8071792e-002
 -1.5137882e-001 -3.8886450e-002
 -1.4306586e-001 -3.1257661e-002
 -1.3472946e-001 -2.1475772e-002
 -1.3282115e-001 -1.8066756e-002
 -1.3882352e-001 -2.5222013e-002
 -1.4823145e-001 -3.9310398e-002
 -1.5393083e-001 -5.1294630e-002
 -1.5152437e-001 -5.3428275e-002
 -1.4270780e-001 -4.5226058e-002
 -1.3418605e-001 -3.4099768e-002
 -1.3286285e-001 -3.0002260e-002
 -1.4072145e-001 -3.7901556e-002
 -1.5315220e-001 -5.3759097e-002
 -1.6204062e-001 -6.7156289e-002
 -1.6149121e-001 -6.8870654e-002
 -1.5195339e-001 -5.7751073e-002
 -1.3998703e-001 -4.1835709e-002
 -1.3367685e-001 -3.2704149e-002
 -1.3721631e-001 -3.7278859e-002
 -1.4837221e-001 -5.2988160e-002
 -1.6044303e-001 -6.9774516e-002
 -1.6712653e-001 -7.7459934e-002
 -1.6654303e-001 -7.2885624e-002
 -1.6165812e-001 -6.1645836e-002
 -1.5709691e-001 -5.3312674e-002
 -1.5531353e-001 -5.4109478e-002
 -1.5515287e-001 -6.2643187e-002
 -1.5377068e-001 -7.1776030e-002
 -1.4998556e-001 -7.4885918e-002
 -1.4591765e-001 -7.1265861e-002
 -1.4538481e-001 -6.6413940e-002
 -1.5024893e-001 -6.7062221e-002
 -1.5802038e-001 -7.5194216e-002
 -1.6305952e-001 -8.6050026e-002
 -1.6086761e-001 -9.1928815e-002
 -1.5207133e-001 -8.8682621e-002
 -1.4255882e-001 -7.9438112e-002
 -1.3926226e-001 -7.2323650e-002
 -1.4464725e-001 -7.3845860e-002
 -1.5436478e-001 -8.3278134e-002
 -1.6032763e-001 -9.2896834e-002
 -1.5713660e-001 -9.4120856e-002
 -1.4682402e-001 -8.4702756e-002
 -1.3775744e-001 -7.0902159e-002
 -1.3795462e-001 -6.2465134e-002
 -1.4780944e-001 -6.4173281e-002
 -1.5823639e-001 -7.0944200e-002
 -1.5635144e-001 -7.0970454e-002
 -1.3504073e-001 -5.5111757e-002
 -9.9359217e-002 -2.5206187e-002
 -6.4551640e-002  5.4407690e-003
 -4.6434844e-002  2.0608911e-002
 -5.1055174e-002  1.2841018e-002
 -7.0931840e-002 -1.1003194e-002
 -9.1054498e-002 -3.4946596e-002
 -1.0003683e-001 -4.6080757e-002
 -9.7954754e-002 -4.4293838e-002
 -9.5134428e-002 -4.1709112e-002
 -1.0308094e-001 -5.2081061e-002
 -1.2477931e-001 -7.8545468e-002
 -1.5216833e-001 -1.0997547e-001
 -1.7265231e-001 -1.2948099e-001
 -1.7905009e-001 -1.2840626e-001
 -1.7472022e-001 -1.1417652e-001
 -1.6945121e-001 -1.0459618e-001
 -1.6988806e-001 -1.1239017e-001
 -1.7325782e-001 -1.3278205e-001
 -1.7059802e-001 -1.4580581e-001
 -1.5743027e-001 -1.3373313e-001
 -1.4195981e-001 -1.0035020e-001
 -1.4121742e-001 -7.4573132e-002
 -1.6459029e-001 -9.0682954e-002
 -1.9613335e-001 -1.5591262e-001
 -1.9178232e-001 -2.2939668e-001
 -9.9764400e-002 -2.3305522e-001
  1.0390105e-001 -9.5055193e-002
  3.8672911e-001  1.9776172e-001
  6.6003277e-001  5.7306277e-001
  8.1440567e-001  8.9444580e-001
  7.7410363e-001  1.0248034e+000
  5.3961350e-001  8.9755162e-001
  1.9212960e-001  5.5407533e-001
 -1.4460015e-001  1.2445764e-001
 -3.6409116e-001 -2.3791929e-001
 -4.2474103e-001 -4.3000639e-001
 -3.5967310e-001 -4.3978336e-001
 -2.4666663e-001 -3.3468267e-001
 -1.5966824e-001 -2.1064901e-001
 -1.3195215e-001 -1.3638726e-001
 -1.5022734e-001 -1.2553770e-001
 -1.7731485e-001 -1.4754192e-001
 -1.8356534e-001 -1.6219548e-001
 -1.6513969e-001 -1.5075879e-001
 -1.3967542e-001 -1.2364174e-001
 -1.2713950e-001 -1.0462788e-001
 -1.3266161e-001 -1.0797085e-001
 -1.4406423e-001 -1.2711348e-001
 -1.4404639e-001 -1.4217979e-001
 -1.2562274e-001 -1.3797297e-001
 -9.7990153e-002 -1.1665970e-001
 -7.8697408e-002 -9.5231536e-002
 -7.8984197e-002 -9.0858773e-002
 -9.4536781e-002 -1.0625530e-001
 -1.0852426e-001 -1.2708206e-001
 -1.0457519e-001 -1.3335497e-001
 -7.9435377e-002 -1.1553185e-001
 -4.5548102e-002 -8.2527111e-002
 -2.1784310e-002 -5.5423041e-002
 -1.9535850e-002 -5.1730559e-002
 -3.4606356e-002 -7.2212479e-002
 -5.0527291e-002 -1.0006807e-001
 -5.0361220e-002 -1.1282346e-001
 -2.8143475e-002 -9.8016067e-002
  8.0960635e-003 -6.1302502e-002
  4.3094970e-002 -2.1617309e-002
  6.5256221e-002  2.4134004e-003
  7.3744379e-002  4.8428464e-003
  7.7266941e-002 -4.9618188e-003
  8.6555856e-002 -1.0198957e-002
  1.0667929e-001  1.3682067e-003
  1.3453215e-001  2.9960624e-002
  1.6227370e-001  6.5263965e-002
  1.8315829e-001  9.4500441e-002
  1.9502548e-001  1.1054564e-001
  1.9957882e-001  1.1462591e-001
  1.9910467e-001  1.1286205e-001
  1.9408109e-001  1.1048375e-001
  1.8358916e-001  1.0840861e-001
  1.6773102e-001  1.0423488e-001
  1.4906463e-001  9.5663270e-002
  1.3147549e-001  8.2960957e-002
  1.1713188e-001  6.8317001e-002
  1.0442431e-001  5.3143534e-002
  8.8891735e-002  3.6110303e-002
  6.6802480e-002  1.3962779e-002
  3.8564352e-002 -1.5436838e-002
  9.0615438e-003 -5.0434804e-002
 -1.5551814e-002 -8.5685446e-002
 -3.2218575e-002 -1.1521420e-001
 -4.2939121e-002 -1.3598824e-001
 -5.2631787e-002 -1.4928112e-001
 -6.4649172e-002 -1.5880809e-001
 -7.7552721e-002 -1.6727210e-001
 -8.5971699e-002 -1.7419209e-001
 -8.5031340e-002 -1.7681712e-001
 -7.4986258e-002 -1.7331781e-001
 -6.2203876e-002 -1.6556177e-001
 -5.5318096e-002 -1.5892882e-001
 -5.9227247e-002 -1.5903400e-001
 -7.1473714e-002 -1.6771485e-001
 -8.3806397e-002 -1.8134952e-001
 -8.8036513e-002 -1.9300719e-001
 -8.1839890e-002 -1.9697205e-001
 -7.0221819e-002 -1.9245447e-001
 -6.1582897e-002 -1.8385730e-001
 -6.1203104e-002 -1.7745012e-001
 -6.7114228e-002 -1.7696242e-001
 -7.1528376e-002 -1.8130759e-001
 -6.6739634e-002 -1.8591342e-001
 -5.1164793e-002 -1.8647104e-001
 -3.0935061e-002 -1.8215704e-001
 -1.5824669e-002 -1.7590240e-001
 -1.2512263e-002 -1.7174340e-001
 -2.0035934e-002 -1.7144430e-001
 -3.0707815e-002 -1.7311770e-001
 -3.5733722e-002 -1.7298284e-001
 -3.1393700e-002 -1.6882208e-001
 -2.1256110e-002 -1.6228177e-001
 -1.3055627e-002 -1.5803382e-001
 -1.2735220e-002 -1.6032978e-001
 -2.0231684e-002 -1.6954407e-001
 -2.9909310e-002 -1.8140783e-001
 -3.5058827e-002 -1.8973845e-001
 -3.2804174e-002 -1.9067609e-001
 -2.5766972e-002 -1.8535713e-001
 -1.9360841e-002 -1.7887590e-001
 -1.7130361e-002 -1.7631568e-001
 -1.8013984e-002 -1.7892779e-001
 -1.7745695e-002 -1.8341122e-001
 -1.3002091e-002 -1.8482903e-001
 -4.7202940e-003 -1.8084726e-001
  2.2725693e-003 -1.7385367e-001
  3.2818135e-003 -1.6910072e-001
 -1.8913912e-003 -1.7026728e-001
 -7.9658292e-003 -1.7595192e-001
 -7.9406697e-003 -1.8027982e-001
  1.1378408e-003 -1.7744469e-001
  1.5011753e-002 -1.6674958e-001
  2.4531307e-002 -1.5405644e-001
  2.2244034e-002 -1.4802206e-001
  8.4467261e-003 -1.5361180e-001
 -8.1488395e-003 -1.6784145e-001
 -1.6062689e-002 -1.8128072e-001
 -9.2663252e-003 -1.8464087e-001
  8.1530760e-003 -1.7566688e-001
  2.4624683e-002 -1.6100906e-001
  2.9417148e-002 -1.5135032e-001
  2.0568507e-002 -1.5324778e-001
  6.3601993e-003 -1.6398020e-001
 -9.1777691e-004 -1.7345181e-001
  5.6190670e-003 -1.7189382e-001
  2.1985084e-002 -1.5745594e-001
  3.6277967e-002 -1.3757439e-001
  3.8052738e-002 -1.2281016e-001
  2.6978092e-002 -1.1802465e-001
  1.4056111e-002 -1.1803957e-001
  1.3855755e-002 -1.1179850e-001
  3.3537830e-002 -9.2037245e-002
  6.6877803e-002 -6.2739370e-002
  9.8159285e-002 -3.7782926e-002
  1.1331712e-001 -3.0927550e-002
  1.1007856e-001 -4.4612496e-002
  9.9303517e-002 -6.6636865e-002
  9.6200458e-002 -7.8371320e-002
  1.0795694e-001 -6.9015899e-002
  1.2728708e-001 -4.4993286e-002
  1.3726444e-001 -2.6432002e-002
  1.2396304e-001 -3.2442248e-002
  8.7496568e-002 -6.6222175e-002
  4.2908205e-002 -1.1107499e-001
  1.0231440e-002 -1.4168636e-001
  9.7078020e-004 -1.4254145e-001
  1.1254903e-002 -1.1935924e-001
  2.6761317e-002 -9.4103078e-002
  3.4972018e-002 -8.6980526e-002
  3.4586284e-002 -9.9581563e-002
  3.4110470e-002 -1.1360864e-001
  4.1120890e-002 -1.0754388e-001
  5.2032630e-002 -7.8578700e-002
  5.3137080e-002 -5.0602152e-002
  3.4742435e-002 -5.7804197e-002
  8.5565994e-003 -1.1236044e-001
  1.2697137e-002 -1.7992303e-001
  9.4975222e-002 -1.8575170e-001
  2.8063608e-001 -5.5210960e-002
  5.4431060e-001  2.3284290e-001
  8.0731239e-001  6.1458133e-001
  9.6776873e-001  9.5703489e-001
  9.5004861e-001  1.1183844e+000
  7.4610210e-001  1.0208893e+000
  4.2360845e-001  6.9404439e-001
  9.4827971e-002  2.6180844e-001
 -1.3690080e-001 -1.1938821e-001
 -2.2293741e-001 -3.3597681e-001
 -1.8299798e-001 -3.6366346e-001
 -8.2530766e-002 -2.6227817e-001
  9.2641392e-003 -1.2814748e-001
  5.4428376e-002 -3.7003241e-002
  5.5907753e-002 -1.1232768e-002
  4.1498871e-002 -2.5600829e-002
  3.7430324e-002 -3.9668061e-002
  5.0719778e-002 -3.0425387e-002
  6.9795218e-002 -3.8528514e-003
  7.8774970e-002  1.7736091e-002
  7.2103088e-002  1.8248615e-002
  5.8366301e-002  1.4124435e-003
  5.2047505e-002 -1.3650475e-002
  6.1195647e-002 -9.1030472e-003
  8.1351505e-002  1.7261870e-002
  9.9824748e-002  5.1007858e-002
  1.0629008e-001  7.3275883e-002
  1.0058671e-001  7.5511478e-002
  9.1917386e-002  6.4875933e-002
  9.0649237e-002  5.7333506e-002
  9.9932197e-002  6.4522019e-002
  1.1379340e-001  8.5196786e-002
  1.2274334e-001  1.0746436e-001
  1.2217205e-001  1.1934681e-001
  1.1651837e-001  1.1864964e-001
  1.1586049e-001  1.1437742e-001
  1.2778854e-001  1.1897068e-001
  1.5113375e-001  1.3804449e-001
  1.7648608e-001  1.6586692e-001
  1.9311048e-001  1.8998256e-001
  1.9685873e-001  2.0102502e-001
  1.9309957e-001  1.9985928e-001
  1.9250467e-001  1.9661011e-001
  2.0316970e-001  2.0273716e-001
  2.2504644e-001  2.2254901e-001
  2.5063445e-001  2.5070199e-001
  2.7110902e-001  2.7724317e-001
  2.8279492e-001  2.9573797e-001
  2.8896268e-001  3.0781898e-001
  2.9585224e-001  3.2067085e-001
  3.0638771e-001  3.3980810e-001
  3.1666721e-001  3.6316644e-001
  3.1819267e-001  3.8149065e-001
  3.0411347e-001  3.8483079e-001
  2.7479135e-001  3.7014939e-001
  2.3827992e-001  3.4402734e-001
  2.0528435e-001  3.1829038e-001
  1.8218644e-001  3.0169271e-001
  1.6716291e-001  2.9391190e-001
  1.5205360e-001  2.8622341e-001
  1.2854821e-001  2.6834381e-001
  9.4198141e-002  2.3631076e-001
  5.4212971e-002  1.9579082e-001
  1.7998117e-002  1.5853977e-001
 -6.8328228e-003  1.3483821e-001
 -1.8799591e-002  1.2730779e-001
 -2.2556935e-002  1.3024533e-001
 -2.5060707e-002  1.3436005e-001
 -3.0995267e-002  1.3306540e-001
 -4.0504187e-002  1.2587564e-001
 -5.0305391e-002  1.1707128e-001
 -5.6853519e-002  1.1132680e-001
 -5.8978693e-002  1.1008153e-001
 -5.8258322e-002  1.1124048e-001
 -5.7374451e-002  1.1183406e-001
 -5.8098195e-002  1.1095601e-001
 -6.0618799e-002  1.1030182e-001
 -6.4324193e-002  1.1205887e-001
 -6.8994263e-002  1.1612929e-001
 -7.5180518e-002  1.1941122e-001
 -8.3227816e-002  1.1807497e-001
 -9.2048925e-002  1.1106567e-001
 -9.8830526e-002  1.0185582e-001
 -1.0048928e-001  9.6597608e-002
 -9.5942062e-002  9.9711721e-002
 -8.7485868e-002  1.1017627e-001
 -8.0008907e-002  1.2155052e-001
 -7.8201090e-002  1.2615122e-001
 -8.3588032e-002  1.2052063e-001
 -9.3395928e-002  1.0820931e-001
 -1.0213044e-001  9.7655953e-002
 -1.0494682e-001  9.6474148e-002
 -1.0065392e-001  1.0610770e-001
 -9.2390040e-002  1.2073757e-001
 -8.5572543e-002  1.3123936e-001
 -8.4595257e-002  1.3139288e-001
 -9.0504996e-002  1.2179205e-001
 -1.0091540e-001  1.0883886e-001
 -1.1193926e-001  9.9771202e-002
 -1.2065989e-001  9.7502685e-002
 -1.2647212e-001  9.9098942e-002
 -1.3068815e-001  9.8810662e-002
 -1.3499495e-001  9.3118769e-002
 -1.4014545e-001  8.3701290e-002
 -1.4566393e-001  7.6094557e-002
 -1.5052015e-001  7.5178092e-002
 -1.5388581e-001  8.1254150e-002
 -1.5546291e-001  8.9791793e-002
 -1.5531880e-001  9.4996767e-002
 -1.5374705e-001  9.4272465e-002
 -1.5146669e-001  8.9924761e-002
 -1.4992659e-001  8.6763868e-002
 -1.5114520e-001  8.7684574e-002
 -1.5660323e-001  9.1098377e-002
 -1.6588376e-001  9.2420565e-002
 -1.7609379e-001  8.8496666e-002
 -1.8308074e-001  8.1073457e-002
 -1.8398491e-001  7.6044774e-002
 -1.7944807e-001  7.8691981e-002
 -1.7371460e-001  8.8679285e-002
 -1.7211315e-001  9.9207298e-002
 -1.7742802e-001  1.0164095e-001
 -1.8773956e-001  9.2457014e-002
 -1.9763518e-001  7.6898238e-002
 -2.0212655e-001  6.5992564e-002
 -2.0045650e-001  6.8647648e-002
 -1.9674211e-001  8.4778792e-002
 -1.9674029e-001  1.0493869e-001
 -2.0293801e-001  1.1722561e-001
 -2.1180689e-001  1.1635174e-001
 -2.1567160e-001  1.0776599e-001
 -2.0808829e-001  1.0336923e-001
 -1.8893357e-001  1.1187870e-001
 -1.6510907e-001  1.3139577e-001
 -1.4606750e-001  1.5028231e-001
 -1.3741210e-001  1.5593428e-001
 -1.3757821e-001  1.4451590e-001
 -1.4020163e-001  1.2379626e-001
 -1.4035954e-001  1.0655097e-001
 -1.3954272e-001  9.9783805e-002
 -1.4493057e-001  9.8773785e-002
 -1.6296116e-001  9.1441573e-002
 -1.9228727e-001  6.9774411e-002
 -2.2226785e-001  3.8756179e-002
 -2.3927193e-001  1.4444735e-002
 -2.3662443e-001  1.1504629e-002
 -2.2049114e-001  2.9834353e-002
 -2.0620438e-001  5.2132631e-002
 -2.0693065e-001  5.6233343e-002
 -2.2306687e-001  3.3412720e-002
 -2.4124994e-001 -1.7976992e-003
 -2.4494100e-001 -2.0946245e-002
 -2.2925307e-001 -5.3066120e-003
 -2.0755488e-001  3.4236591e-002
 -2.0220892e-001  5.9423525e-002
 -2.2367709e-001  3.2694021e-002
 -2.5292099e-001 -4.5915528e-002
 -2.4294726e-001 -1.2115928e-001
 -1.4381641e-001 -1.0345867e-001
  6.1157431e-002  7.7615461e-002
  3.3136565e-001  4.1825283e-001
  5.7594634e-001  8.2123999e-001
  6.9304362e-001  1.1314350e+000
  6.2170134e-001  1.2110707e+000
  3.7653887e-001  1.0129712e+000
  4.4056410e-002  6.0831989e-001
 -2.5859036e-001  1.5168269e-001
 -4.3946367e-001 -1.9683478e-001
 -4.7124300e-001 -3.4726663e-001
 -3.9385628e-001 -3.1161003e-001
 -2.8254509e-001 -1.7853941e-001
 -2.0329528e-001 -5.2308647e-002
 -1.8218629e-001  4.3728668e-003
 -2.0348478e-001 -8.4850814e-003
 -2.3184614e-001 -4.8187933e-002
 -2.4025732e-001 -6.9836563e-002
 -2.2520871e-001 -5.7364295e-002
 -2.0212654e-001 -2.6925841e-002
 -1.8859467e-001 -6.4346049e-003
 -1.8977597e-001 -1.0701798e-002
 -1.9627653e-001 -3.1245976e-002
 -1.9394683e-001 -4.5971163e-002
 -1.7640014e-001 -3.8472550e-002
 -1.5021298e-001 -1.0924344e-002
 -1.2944174e-001  1.8599262e-002
 -1.2456652e-001  3.0783603e-002
 -1.3469400e-001  1.9434887e-002
 -1.4860087e-001 -5.0867271e-003
 -1.5314693e-001 -2.4662739e-002
 -1.4232212e-001 -2.6630980e-002
 -1.2030931e-001 -1.1233482e-002
 -9.7246048e-002  1.0997753e-002
 -8.1483155e-002  2.8477006e-002
 -7.4321769e-002  3.6538795e-002
 -7.0492779e-002  3.8667398e-002
 -6.3178185e-002  4.1502103e-002
 -4.9148940e-002  4.8923360e-002
 -3.0351708e-002  6.0023342e-002
 -1.1473545e-002  7.1788417e-002
  3.9818638e-003  8.3041875e-002
  1.5793254e-002  9.5665028e-002
  2.6291241e-002  1.1216901e-001
  3.7973821e-002  1.3255755e-001
  5.1728553e-002  1.5322909e-001
  6.6780911e-002  1.6958536e-001
  8.1827474e-002  1.7988050e-001
  9.6021088e-002  1.8667544e-001
  1.0864201e-001  1.9436223e-001
  1.1819386e-001  2.0492631e-001
  1.2231267e-001  2.1568422e-001
  1.1905887e-001  2.2121959e-001
  1.0874501e-001  2.1806004e-001
  9.4434423e-002  2.0791955e-001
  8.0328135e-002  1.9657614e-001
  6.8860389e-002  1.8896745e-001
  5.8650908e-002  1.8450956e-001
  4.5123658e-002  1.7674767e-001
  2.3650577e-002  1.5801287e-001
 -6.9040119e-003  1.2570431e-001
 -4.2862128e-002  8.5109344e-002
 -7.7664187e-002  4.6389805e-002
 -1.0561270e-001  1.7919929e-002
 -1.2476670e-001  1.1175626e-003
 -1.3704756e-001 -9.3231837e-003
 -1.4579982e-001 -2.0147750e-002
 -1.5293141e-001 -3.3629667e-002
 -1.5794391e-001 -4.5880096e-002
 -1.5938192e-001 -5.0676537e-002
 -1.5731111e-001 -4.5640085e-002
 -1.5453599e-001 -3.5563690e-002
 -1.5525117e-001 -2.9862307e-002
 -1.6216008e-001 -3.5956411e-002
 -1.7414060e-001 -5.3537771e-002
 -1.8638446e-001 -7.4240645e-002
 -1.9310173e-001 -8.7089907e-002
 -1.9092345e-001 -8.5721753e-002
 -1.8078603e-001 -7.2203021e-002
 -1.6715933e-001 -5.4958876e-002
 -1.5535325e-001 -4.2736136e-002
 -1.4886896e-001 -3.9223675e-002
 -1.4826701e-001 -4.1910554e-002
 -1.5195609e-001 -4.5372924e-002
 -1.5773705e-001 -4.5747203e-002
 -1.6388007e-001 -4.2944506e-002
 -1.6918529e-001 -3.9330933e-002
 -1.7242684e-001 -3.6711532e-002
 -1.7212148e-001 -3.4529848e-002
 -1.6707873e-001 -3.0717295e-002
 -1.5750744e-001 -2.4249941e-002
 -1.4569772e-001 -1.6827468e-002
 -1.3556088e-001 -1.2081000e-002
 -1.3106841e-001 -1.2933413e-002
 -1.3431914e-001 -1.9281755e-002
 -1.4427084e-001 -2.7950416e-002
 -1.5683305e-001 -3.4780784e-002
 -1.6644721e-001 -3.7163640e-002
 -1.6859402e-001 -3.5151913e-002
 -1.6207630e-001 -3.0679850e-002
 -1.4990181e-001 -2.6044255e-002
 -1.3814519e-001 -2.3041761e-002
 -1.3295322e-001 -2.3091507e-002
 -1.3713785e-001 -2.7449306e-002
 -1.4824033e-001 -3.6512433e-002
 -1.5962922e-001 -4.8533264e-002
 -1.6435298e-001 -5.9205193e-002
 -1.5956255e-001 -6.3371284e-002
 -1.4860888e-001 -5.8380892e-002
 -1.3910197e-001 -4.6659700e-002
 -1.3778139e-001 -3.4938990e-002
 -1.4557353e-001 -2.9992353e-002
 -1.5639445e-001 -3.3618658e-002
 -1.6101841e-001 -4.0921846e-002
 -1.5363686e-001 -4.3756077e-002
 -1.3646921e-001 -3.7124968e-002
 -1.1891620e-001 -2.3727321e-002
 -1.1140292e-001 -1.2639158e-002
 -1.1814480e-001 -1.2665001e-002
 -1.3398406e-001 -2.5233959e-002
 -1.4779306e-001 -4.2574383e-002
 -1.5020414e-001 -5.3131734e-002
 -1.4002836e-001 -5.0364355e-002
 -1.2463274e-001 -3.7967042e-002
 -1.1405816e-001 -2.7104042e-002
 -1.1330707e-001 -2.7379332e-002
 -1.1879913e-001 -3.8507809e-002
 -1.2174517e-001 -4.9688867e-002
 -1.1565941e-001 -4.7595528e-002
 -1.0206268e-001 -2.7170685e-002
 -8.9680685e-002  3.4091726e-003
 -8.7473794e-002  2.7975816e-002
 -9.6921227e-002  3.4220883e-002
 -1.0977360e-001  2.3130387e-002
 -1.1342394e-001  8.3843025e-003
 -9.9994610e-002  5.9322978e-003
 -7.2295417e-002  2.1675789e-002
 -4.2101100e-002  4.6853068e-002
 -2.2096438e-002  6.4772804e-002
 -1.7770287e-002  6.3562536e-002
 -2.5200415e-002  4.4812642e-002
 -3.6132254e-002  2.1256649e-002
 -4.5529105e-002  5.6806300e-003
 -5.4996528e-002  5.0598399e-004
 -6.9201459e-002 -3.0967944e-003
 -8.8848534e-002 -1.5834408e-002
 -1.0700752e-001 -3.8901008e-002
 -1.1310270e-001 -6.1030567e-002
 -1.0207610e-001 -6.7509834e-002
 -8.0972638e-002 -5.3971360e-002
 -6.6016956e-002 -3.2962931e-002
 -7.0979257e-002 -2.5382114e-002
 -9.5156072e-002 -4.2638745e-002
 -1.2157289e-001 -7.4192221e-002
 -1.2893900e-001 -9.2986662e-002
 -1.0932427e-001 -7.7442382e-002
 -7.7445008e-002 -3.3741823e-002
 -6.1471638e-002  1.8405683e-003
 -7.8940962e-002 -1.2072482e-002
 -1.1442202e-001 -8.3816989e-002
 -1.1798982e-001 -1.6571551e-001
 -3.1212901e-002 -1.6895090e-001
  1.7199010e-001 -1.4778435e-002
  4.5569342e-001  3.0685144e-001
  7.2610327e-001  7.1060818e-001
  8.7240310e-001  1.0443682e+000
  8.2344978e-001  1.1624529e+000
  5.8747154e-001  1.0029020e+000
  2.5059533e-001  6.2291887e-001
 -6.5844726e-002  1.7050729e-001
 -2.6450141e-001 -1.9120827e-001
 -3.1403575e-001 -3.6257562e-001
 -2.5213125e-001 -3.4484203e-001
 -1.5241942e-001 -2.1976814e-001
 -7.8973107e-002 -9.0520009e-002
 -5.6214924e-002 -2.3417461e-002
 -6.8834746e-002 -2.4069212e-002
 -8.5288277e-002 -5.4935865e-002
 -8.4832013e-002 -7.4233858e-002
 -6.9574137e-002 -6.6343804e-002
 -5.6582186e-002 -4.5275334e-002
 -5.9956309e-002 -3.4957770e-002
 -7.8263892e-002 -4.5890836e-002
 -9.6322938e-002 -6.6953626e-002
 -9.8201173e-002 -7.6608114e-002
 -8.0026125e-002 -6.2058435e-002
 -5.2663490e-002 -3.0029294e-002
 -3.2827302e-002 -9.8367084e-004
 -3.0417220e-002  7.4260086e-003
 -4.1907133e-002 -6.0946623e-003
 -5.4313686e-002 -2.6493498e-002
 -5.5690396e-002 -3.4955612e-002
 -4.3606783e-002 -2.3368051e-002
 -2.5431798e-002  6.9819957e-004
 -1.1161470e-002  2.1591664e-002
 -5.1261036e-003  2.8821653e-002
 -3.1222935e-003  2.5046539e-002
  3.2299452e-003  2.2835637e-002
  1.9087147e-002  3.3579136e-002
  4.2098921e-002  5.7971055e-002
  6.4462918e-002  8.5620174e-002
  7.9260980e-002  1.0370393e-001
  8.5740485e-002  1.0733693e-001
  8.9558199e-002  1.0337250e-001
  9.8058279e-002  1.0486655e-001
  1.1476061e-001  1.2108759e-001
  1.3716206e-001  1.5086538e-001
  1.5922260e-001  1.8413262e-001
  1.7598902e-001  2.0981176e-001
  1.8649366e-001  2.2344595e-001
  1.9293930e-001  2.2884472e-001
  1.9757773e-001  2.3331020e-001
  2.0033360e-001  2.4105306e-001
  1.9915833e-001  2.5021595e-001
  1.9249026e-001  2.5546103e-001
  1.8113406e-001  2.5306048e-001
  1.6770817e-001  2.4380141e-001
  1.5402713e-001  2.3130978e-001
  1.3903961e-001  2.1779553e-001
  1.1955194e-001  2.0151347e-001
  9.3562230e-002  1.7863628e-001
  6.3276846e-002  1.4785181e-001
  3.4943771e-002  1.1344842e-001
  1.5047797e-002  8.3596397e-002
  5.4891884e-003  6.4692316e-002
  1.7589997e-003  5.6265875e-002
 -4.1543794e-003  5.0923391e-002
 -1.7886994e-002  3.9854114e-002
 -3.8181184e-002  1.9885640e-002
 -5.7472587e-002 -3.7240308e-003
 -6.7312361e-002 -2.1082603e-002
 -6.4646528e-002 -2.5284959e-002
 -5.4274286e-002 -1.7952528e-002
 -4.5468109e-002 -8.1007914e-003
 -4.5348122e-002 -5.2596936e-003
 -5.3774298e-002 -1.2313054e-002
 -6.3779722e-002 -2.3474496e-002
 -6.6830593e-002 -2.9101548e-002
 -5.9134878e-002 -2.3565676e-002
 -4.4308309e-002 -9.8762790e-003
 -3.0597816e-002  2.5622239e-003
 -2.4972557e-002  5.2191891e-003
 -2.8566857e-002 -3.0393783e-003
 -3.6634006e-002 -1.5223822e-002
 -4.2507517e-002 -2.1711407e-002
 -4.2331403e-002 -1.7497589e-002
 -3.7053929e-002 -5.5649776e-003
 -3.0712458e-002  5.9795755e-003
 -2.6889236e-002  1.0351680e-002
 -2.6352901e-002  6.9250419e-003
 -2.7508867e-002  7.0357806e-004
 -2.8634785e-002 -2.5257974e-003
 -2.9499337e-002 -1.0494073e-003
 -3.1005570e-002  1.9618894e-003
 -3.3423899e-002  2.0186434e-003
 -3.5253518e-002 -2.2131315e-003
 -3.4080558e-002 -7.6154195e-003
 -2.8987743e-002 -9.7392605e-003
 -2.2222184e-002 -7.4605479e-003
 -1.8250300e-002 -4.8127902e-003
 -2.0557544e-002 -7.9821334e-003
 -2.8651643e-002 -1.9695967e-002
 -3.7953674e-002 -3.5865297e-002
 -4.2937426e-002 -4.7664797e-002
 -4.1319574e-002 -4.7894762e-002
 -3.5915496e-002 -3.6656939e-002
 -3.2543487e-002 -2.1709946e-002
 -3.5366764e-002 -1.2825509e-002
 -4.3425054e-002 -1.4605688e-002
 -5.1235534e-002 -2.3406424e-002
 -5.3020033e-002 -3.0785601e-002
 -4.7398459e-002 -3.0782693e-002
 -3.8601368e-002 -2.4961664e-002
 -3.3158549e-002 -2.0962701e-002
 -3.4629965e-002 -2.5703513e-002
 -4.0605217e-002 -3.8796983e-002
 -4.4541696e-002 -5.1867325e-002
 -4.1088370e-002 -5.4707119e-002
 -3.0797496e-002 -4.3635114e-002
 -2.0259448e-002 -2.5234875e-002
 -1.7396824e-002 -1.2174004e-002
 -2.5426351e-002 -1.3999870e-002
 -4.0157743e-002 -2.9912648e-002
 -5.2813529e-002 -4.9213688e-002
 -5.6179523e-002 -5.9113848e-002
 -4.9521312e-002 -5.4023196e-002
 -3.8547694e-002 -3.9199835e-002
 -3.0764115e-002 -2.6192405e-002
 -2.9963470e-002 -2.3948192e-002
 -3.4231577e-002 -3.2595522e-002
 -3.8595497e-002 -4.4486270e-002
 -3.9794189e-002 -5.1186068e-002
 -3.8942630e-002 -5.0273471e-002
 -3.9855466e-002 -4.6385610e-002
 -4.4707820e-002 -4.6065533e-002
 -5.1057616e-002 -5.1234101e-002
 -5.3181210e-002 -5.7221461e-002
 -4.6967864e-002 -5.7209872e-002
 -3.4215296e-002 -4.9088614e-002
 -2.2439315e-002 -3.8440800e-002
 -1.9732660e-002 -3.4475550e-002
 -2.8483889e-002 -4.1826116e-002
 -4.3017582e-002 -5.5309575e-002
 -5.3427100e-002 -6.2708079e-002
 -5.2766065e-002 -5.4043809e-002
 -4.2204167e-002 -3.0211570e-002
 -2.9860108e-002 -3.5716736e-003
 -2.4088338e-002  1.0878441e-002
 -2.6588452e-002  7.0246382e-003
 -3.0804210e-002 -7.3162538e-003
 -2.7244157e-002 -1.6076897e-002
 -1.1266332e-002 -7.6212079e-003
  1.2700340e-002  1.5585578e-002
  3.4036324e-002  3.8316603e-002
  4.3798985e-002  4.4218512e-002
  4.1272371e-002  2.8765961e-002
  3.3777048e-002  2.9733172e-003
  2.9927080e-002 -1.5394674e-002
  3.1908556e-002 -1.6241886e-002
  3.3330687e-002 -5.4369753e-003
  2.4763324e-002  1.8182795e-004
  2.4890199e-003 -1.2683920e-002
 -2.6911990e-002 -4.1649283e-002
 -5.0366589e-002 -6.9391875e-002
 -5.7952652e-002 -7.7447334e-002
 -5.0502798e-002 -6.2030761e-002
 -3.8780167e-002 -3.8311986e-002
 -3.4455239e-002 -2.8488326e-002
 -4.0438080e-002 -4.2741680e-002
 -4.9081042e-002 -6.9270837e-002
 -5.0426806e-002 -8.3511124e-002
 -4.3594887e-002 -7.0778665e-002
 -4.0098561e-002 -4.3553588e-002
 -5.3354921e-002 -3.5917820e-002
 -8.0328840e-002 -7.4409524e-002
 -9.0206881e-002 -1.4492530e-001
 -3.3497149e-002 -1.8349461e-001
  1.2829694e-001 -1.0582818e-001
  3.8889599e-001  1.3683917e-001
  6.8292322e-001  5.1040407e-001
  9.0594685e-001  8.9438438e-001
  9.6270751e-001  1.1326079e+000
  8.1772759e-001  1.1131637e+000
  5.1810168e-001  8.3123534e-001
  1.7312439e-001  3.9581136e-001
 -9.9042613e-002 -2.5483570e-002
 -2.2734655e-001 -2.9129983e-001
 -2.1514475e-001 -3.5175144e-001
 -1.2544160e-001 -2.5803462e-001
 -3.6951538e-002 -1.1672386e-001
  4.8643612e-004 -2.1751458e-002
 -1.4876118e-002 -7.1124501e-003
 -4.9828821e-002 -4.4936629e-002
 -6.7688439e-002 -8.1644458e-002
 -5.4527652e-002 -8.1773764e-002
 -2.3809725e-002 -4.8975657e-002
 -4.2776236e-004 -1.4307906e-002
  8.0121209e-004 -6.2161122e-003
 -1.4563324e-002 -2.7490980e-002
 -2.7651653e-002 -5.5632363e-002
 -2.3056074e-002 -6.3333447e-002
 -1.1470660e-003 -4.0913830e-002
  2.3278920e-002 -2.9575290e-003
  3.3895105e-002  2.4617756e-002
  2.6263466e-002  2.5464779e-002
  1.1047946e-002  4.7291466e-003
  4.9884720e-003 -1.6559724e-002
  1.7363794e-002 -1.8951915e-002
  4.2809280e-002  5.8713434e-004
  6.5924873e-002  2.7860233e-002
  7.3565509e-002  4.4179588e-002
  6.5104369e-002  4.1758404e-002
  5.2769398e-002  2.9395070e-002
  5.2102113e-002  2.4568657e-002
  7.0289450e-002  3.9058027e-002
  1.0127482e-001  6.9844350e-002
  1.3101247e-001  1.0223331e-001
  1.4832586e-001  1.2194105e-001
  1.5276898e-001  1.2607160e-001
  1.5385578e-001  1.2439101e-001
  1.6286263e-001  1.3049983e-001
  1.8401337e-001  1.5059809e-001
  2.1177155e-001  1.7897291e-001
  2.3588610e-001  2.0347994e-001
  2.4953877e-001  2.1595852e-001
  2.5394401e-001  2.1870065e-001
  2.5597933e-001  2.2180769e-001
  2.6144254e-001  2.3405376e-001
  2.6971366e-001  2.5503564e-001
  2.7418289e-001  2.7515237e-001
  2.6793526e-001  2.8325687e-001
  2.4975684e-001  2.7548228e-001
  2.2543953e-001  2.5788904e-001
  2.0323785e-001  2.4081233e-001
  1.8733976e-001  2.2988733e-001
  1.7472886e-001  2.2136836e-001
  1.5803521e-001  2.0572837e-001
  1.3209403e-001  1.7659560e-001
  9.8782850e-002  1.3738787e-001
  6.6186829e-002  9.9882623e-002
  4.2718679e-002  7.5561519e-002
  3.0830920e-002  6.6646144e-002
  2.5322070e-002  6.4186366e-002
  1.7662213e-002  5.5120808e-002
  2.8808459e-003  3.2822191e-002
 -1.6401601e-002  2.7992508e-003
 -3.2039793e-002 -2.1155474e-002
 -3.6737677e-002 -2.7466831e-002
 -2.9809213e-002 -1.5819793e-002
 -1.7874650e-002  2.3650080e-003
 -9.9368755e-003  1.2497062e-002
 -1.0814429e-002  7.5662087e-003
 -1.7981702e-002 -6.9639143e-003
 -2.4130385e-002 -1.8121661e-002
 -2.3341328e-002 -1.6197284e-002
 -1.5981823e-002 -2.5774779e-003
 -8.2979932e-003  1.1363269e-002
 -7.3463261e-003  1.3273431e-002
 -1.5211739e-002 -2.3177046e-004
 -2.6983980e-002 -2.0523858e-002
 -3.4015764e-002 -3.3060361e-002
 -3.0128086e-002 -2.8007588e-002
 -1.6186884e-002 -7.3867767e-003
  2.4630225e-004  1.6451147e-002
  9.7806130e-003  2.9529365e-002
  6.9805420e-003  2.5449765e-002
 -6.7008099e-003  8.6023547e-003
 -2.4402536e-002 -1.0242746e-002
 -3.8282272e-002 -2.1944317e-002
 -4.3649101e-002 -2.4404822e-002
 -4.0519801e-002 -2.2010710e-002
 -3.2348669e-002 -2.0609071e-002
 -2.3492292e-002 -2.2726725e-002
 -1.7213204e-002 -2.6673257e-002
 -1.5032225e-002 -2.9545904e-002
 -1.6851378e-002 -3.0657974e-002
 -2.1321966e-002 -3.2211948e-002
 -2.6173395e-002 -3.6701720e-002
 -2.8934481e-002 -4.3784450e-002
 -2.8094218e-002 -4.9763434e-002
 -2.4148097e-002 -5.0439224e-002
 -1.9618230e-002 -4.4910613e-002
 -1.7532077e-002 -3.6829789e-002
 -1.9266904e-002 -3.1835277e-002
 -2.3400834e-002 -3.3154109e-002
 -2.6657759e-002 -3.9088702e-002
 -2.6621577e-002 -4.4686772e-002
 -2.4012014e-002 -4.6195846e-002
 -2.2607175e-002 -4.4505946e-002
 -2.6485125e-002 -4.4502149e-002
 -3.6550273e-002 -5.0758259e-002
 -4.9054137e-002 -6.3082776e-002
 -5.7598512e-002 -7.5882708e-002
 -5.7451298e-002 -8.2152769e-002
 -4.8994300e-002 -7.8929309e-002
 -3.7690150e-002 -6.9792533e-002
 -3.0342820e-002 -6.2117743e-002
 -3.0464959e-002 -6.1315975e-002
 -3.6110101e-002 -6.6686351e-002
 -4.1701232e-002 -7.2296082e-002
 -4.2453756e-002 -7.2268431e-002
 -3.7849821e-002 -6.5964187e-002
 -3.1644279e-002 -5.8724480e-002
 -2.8494621e-002 -5.7377844e-002
 -3.0141672e-002 -6.4265416e-002
 -3.4162105e-002 -7.4809148e-002
 -3.6256519e-002 -8.0905949e-002
 -3.4066642e-002 -7.7571590e-002
 -2.9133021e-002 -6.7179413e-002
 -2.5596384e-002 -5.7886011e-002
 -2.6603572e-002 -5.7292373e-002
 -3.1596793e-002 -6.6101770e-002
 -3.6655914e-002 -7.7457142e-002
 -3.7826296e-002 -8.2505131e-002
 -3.4627149e-002 -7.7797029e-002
 -3.0579753e-002 -6.8311820e-002
 -3.0343025e-002 -6.3540359e-002
 -3.5720235e-002 -6.9538170e-002
 -4.3908608e-002 -8.3558610e-002
 -4.9504201e-002 -9.5787808e-002
 -4.8748838e-002 -9.7064901e-002
 -4.2500853e-002 -8.6398870e-002
 -3.5550668e-002 -7.2080499e-002
 -3.2750890e-002 -6.5263887e-002
 -3.5251575e-002 -7.1076998e-002
 -3.9827554e-002 -8.4385179e-002
 -4.1962311e-002 -9.3926281e-002
 -3.9848526e-002 -9.1443635e-002
 -3.5810627e-002 -7.8410853e-002
 -3.3998928e-002 -6.4831000e-002
 -3.6349853e-002 -6.0892122e-002
 -4.0601853e-002 -6.8424071e-002
 -4.2279029e-002 -7.9204823e-002
 -3.9176987e-002 -8.1775044e-002
 -3.4214209e-002 -7.1187461e-002
 -3.3566370e-002 -5.3498753e-002
 -4.1071304e-002 -4.0999378e-002
 -5.3368566e-002 -4.1793694e-002
 -6.0390445e-002 -5.2355494e-002
 -5.1826750e-002 -5.9607201e-002
 -2.5116151e-002 -5.1328587e-002
  1.1259416e-002 -2.6707304e-002
  4.2385119e-002  1.7839010e-003
  5.6578472e-002  1.7247027e-002
  5.3001381e-002  1.1189148e-002
  4.1270908e-002 -1.0011245e-002
  3.3274734e-002 -3.0397011e-002
  3.3489558e-002 -3.7489791e-002
  3.5656059e-002 -3.2398456e-002
  2.8602799e-002 -2.8501990e-002
  6.5327781e-003 -3.9525095e-002
 -2.4688990e-002 -6.6803315e-002
 -5.0984016e-002 -9.6846344e-002
 -6.0891223e-002 -1.1192946e-001
 -5.5031862e-002 -1.0530854e-001
 -4.5916857e-002 -8.7979968e-002
 -4.7411083e-002 -8.0083960e-002
 -6.2251010e-002 -9.3117055e-002
 -7.8614798e-002 -1.1799444e-001
 -7.9878584e-002 -1.3072823e-001
 -6.0726357e-002 -1.1361217e-001
 -3.5584089e-002 -7.5237626e-002
 -2.9577495e-002 -5.0549171e-002
 -5.5434615e-002 -7.5449726e-002
 -9.2773595e-002 -1.5116424e-001
 -8.8476360e-002 -2.2575152e-001
  1.5672070e-002 -2.1265826e-001
  2.4161932e-001 -4.1846289e-002
  5.4646922e-001  2.8606542e-001
  8.2918265e-001  6.7964204e-001
  9.7440087e-001  9.8958943e-001
  9.1120739e-001  1.0810938e+000
  6.5293842e-001  9.0520724e-001
  2.9362586e-001  5.2691280e-001
 -3.7962914e-002  9.2540010e-002
 -2.4051161e-001 -2.4441993e-001
 -2.8357908e-001 -3.9595813e-001
 -2.0996010e-001 -3.7052415e-001
 -1.0027336e-001 -2.4975036e-001
 -2.4384225e-002 -1.3107561e-001
 -8.8627201e-003 -7.3996821e-002
 -3.5879264e-002 -7.9935078e-002
 -6.7559449e-002 -1.1055123e-001
 -7.5637400e-002 -1.2498046e-001
 -5.6805821e-002 -1.0826741e-001
 -2.7655981e-002 -7.4755735e-002
 -7.5360526e-003 -4.9966901e-002
 -4.0690525e-003 -4.8536777e-002
 -1.0827074e-002 -6.4962479e-002
 -1.5994163e-002 -8.1440356e-002
 -1.2903841e-002 -8.3641009e-002
 -3.8442580e-003 -7.0891530e-002
  4.4281939e-003 -5.3903537e-002
  8.0499541e-003 -4.3955716e-002
  9.2842014e-003 -4.3573579e-002
  1.3464772e-002 -4.6026187e-002
  2.3023500e-002 -4.2871375e-002
  3.4661025e-002 -3.2029956e-002
  4.2381572e-002 -1.9271873e-002
  4.3676480e-002 -1.2266300e-002
  4.3071137e-002 -1.2853548e-002
  4.9369214e-002 -1.4681960e-002
  6.8341236e-002 -8.4378894e-003
  9.6914001e-002  9.8134338e-003
  1.2409255e-001  3.4432865e-002
  1.3848617e-001  5.4020980e-002
  1.3705946e-001  6.0528674e-002
  1.2824589e-001  5.6305285e-002
  1.2668003e-001  5.3247349e-002
  1.4304390e-001  6.4203931e-002
  1.7642889e-001  9.3150489e-002
  2.1472233e-001  1.3158200e-001
  2.4278481e-001  1.6402875e-001
  2.5245498e-001  1.7866352e-001
  2.4727272e-001  1.7522173e-001
  2.3901853e-001  1.6469004e-001
  2.3897793e-001  1.6126033e-001
  2.5040188e-001  1.7263025e-001
  2.6717444e-001  1.9549991e-001
  2.7891479e-001  2.1881220e-001
  2.7816810e-001  2.3166393e-001
  2.6444647e-001  2.2984420e-001
  2.4283363e-001  2.1674272e-001
  2.1914755e-001  1.9886638e-001
  1.9592090e-001  1.8051907e-001
  1.7205627e-001  1.6155378e-001
  1.4563493e-001  1.3928129e-001
  1.1690851e-001  1.1250749e-001
  8.8970446e-002  8.3705117e-002
  6.5475810e-002  5.7485208e-002
  4.7670527e-002  3.6983996e-002
  3.3444122e-002  2.1323734e-002
  1.9344537e-002  6.6001873e-003
  3.6785569e-003 -1.0586020e-002
 -1.1855190e-002 -2.9909275e-002
 -2.3445968e-002 -4.7154215e-002
 -2.8339353e-002 -5.7327220e-002
 -2.7219026e-002 -5.8513313e-002
 -2.3905221e-002 -5.3465674e-002
 -2.2550644e-002 -4.7611652e-002
 -2.4686030e-002 -4.5207525e-002
 -2.8462087e-002 -4.6628140e-002
 -3.0614044e-002 -4.8886854e-002
 -2.9503474e-002 -4.8764941e-002
 -2.6608963e-002 -4.5914545e-002
 -2.5246786e-002 -4.3296478e-002
 -2.7702757e-002 -4.4671813e-002
 -3.3056368e-002 -5.1184409e-002
 -3.7628677e-002 -5.9883028e-002
 -3.7773164e-002 -6.5517264e-002
 -3.2770751e-002 -6.4288593e-002
 -2.5521536e-002 -5.6719089e-002
 -2.0401720e-002 -4.7403864e-002
 -1.9954981e-002 -4.1779404e-002
 -2.3030720e-002 -4.2415077e-002
 -2.5822535e-002 -4.7519079e-002
 -2.4936467e-002 -5.2688330e-002
 -2.0121363e-002 -5.4461413e-002
 -1.4521115e-002 -5.2860519e-002
 -1.2134378e-002 -5.0937261e-002
 -1.4567579e-002 -5.1833414e-002
 -1.9646675e-002 -5.5846331e-002
 -2.3045178e-002 -5.9959199e-002
 -2.1714388e-002 -6.0300547e-002
 -1.6513956e-002 -5.5679801e-002
 -1.1804359e-002 -4.9184759e-002
 -1.2250085e-002 -4.6413945e-002
 -1.9143684e-002 -5.1376695e-002
 -2.8988564e-002 -6.3100288e-002
 -3.5578833e-002 -7.5679648e-002
 -3.4269672e-002 -8.2095313e-002
 -2.5370175e-002 -7.9144759e-002
 -1.4173431e-002 -6.9894062e-002
 -7.6719592e-003 -6.1765243e-002
 -9.9758493e-003 -6.1361679e-002
 -1.9709731e-002 -6.9783534e-002
 -3.1073646e-002 -8.1852480e-002
 -3.7815717e-002 -8.9913092e-002
 -3.7239801e-002 -8.9420647e-002
 -3.1606909e-002 -8.2263048e-002
 -2.6052560e-002 -7.5196525e-002
 -2.4656147e-002 -7.4583788e-002
 -2.7633177e-002 -8.1395087e-002
 -3.1390644e-002 -9.0279149e-002
 -3.1396942e-002 -9.3445772e-002
 -2.5662401e-002 -8.6965465e-002
 -1.6335455e-002 -7.4038832e-002
 -8.2643868e-003 -6.2980767e-002
 -5.6109163e-003 -6.1242931e-002
 -9.2020429e-003 -6.9941637e-002
 -1.6277898e-002 -8.3089879e-002
 -2.2677071e-002 -9.2216239e-002
 -2.5685975e-002 -9.2786152e-002
 -2.5468027e-002 -8.7461672e-002
 -2.4210213e-002 -8.3560331e-002
 -2.3867344e-002 -8.6668353e-002
 -2.4420616e-002 -9.5565328e-002
 -2.4045466e-002 -1.0271918e-001
 -2.0953760e-002 -1.0029406e-001
 -1.5295671e-002 -8.7051462e-002
 -9.3973171e-003 -7.0406398e-002
 -6.2235934e-003 -6.1626350e-002
 -7.2466251e-003 -6.7405569e-002
 -1.1482364e-002 -8.4310987e-002
 -1.6491167e-002 -1.0070636e-001
 -2.0401074e-002 -1.0511757e-001
 -2.3261312e-002 -9.4884891e-002
 -2.6406939e-002 -7.8314085e-002
 -3.0487731e-002 -6.8410403e-002
 -3.3982400e-002 -7.2736023e-002
 -3.3861006e-002 -8.7283284e-002
 -2.8146748e-002 -9.9233856e-002
 -1.8331527e-002 -9.6801183e-002
 -9.2743313e-003 -7.8537446e-002
 -6.1263515e-003 -5.4805736e-002
 -1.0170830e-002 -3.9898970e-002
 -1.6980774e-002 -4.0910090e-002
 -1.8794954e-002 -5.2048518e-002
 -9.8940928e-003 -5.9094547e-002
  8.9126983e-003 -5.0736116e-002
  3.0214545e-002 -2.7922576e-002
  4.4820311e-002 -3.7325094e-003
  4.8129908e-002  6.3815893e-003
  4.3102440e-002 -3.6817989e-003
  3.7475613e-002 -2.6205068e-002
  3.7089886e-002 -4.6104204e-002
  4.0644921e-002 -5.3044815e-002
  4.0399040e-002 -4.9293405e-002
  2.8640036e-002 -4.6801546e-002
  5.0082581e-003 -5.5939055e-002
 -2.1597004e-002 -7.5539414e-002
 -3.8697155e-002 -9.3172180e-002
 -3.9658321e-002 -9.6055375e-002
 -2.9389875e-002 -8.3535064e-002
 -2.1125846e-002 -6.9724398e-002
 -2.5900374e-002 -7.2438074e-002
 -4.2908146e-002 -9.6529897e-002
 -5.9030125e-002 -1.2616069e-001
 -5.9344632e-002 -1.3501530e-001
 -4.0972973e-002 -1.0899055e-001
 -1.8452412e-002 -6.3651719e-002
 -1.3715792e-002 -3.9174763e-002
 -3.5381890e-002 -7.0921614e-002
 -6.2333378e-002 -1.5381966e-001
 -4.6740600e-002 -2.2817386e-001
  5.9887465e-002 -2.0407670e-001
  2.7083822e-001 -1.5949396e-002
  5.4162430e-001  3.2483586e-001
  7.7915249e-001  7.1576109e-001
  8.8254407e-001  1.0030673e+000
  7.9487839e-001  1.0577225e+000
  5.3621714e-001  8.4469163e-001
  1.9725343e-001  4.4400801e-001
 -1.0411319e-001  1.0264027e-002
 -2.7907195e-001 -3.0594259e-001
 -3.0557364e-001 -4.2890811e-001
 -2.2796762e-001 -3.8192366e-001
 -1.2242929e-001 -2.5577179e-001
 -5.1720886e-002 -1.4667066e-001
 -3.6228959e-002 -1.0393887e-001
 -5.5332338e-002 -1.1655682e-001
 -7.2585921e-002 -1.3935624e-001
 -6.4612179e-002 -1.3454132e-001
 -3.4472438e-002 -9.8189020e-002
 -3.6756470e-003 -5.6596234e-002
  7.7106050e-003 -4.0408350e-002
 -3.4152879e-003 -5.9015982e-002
 -2.2616260e-002 -9.4399176e-002
 -3.0678141e-002 -1.1667902e-001
 -1.8586682e-002 -1.0746160e-001
  6.7001522e-003 -7.2616881e-002
  2.9157696e-002 -3.5817381e-002
  3.6688750e-002 -1.9482442e-002
  2.9942310e-002 -2.8436644e-002
  2.0539170e-002 -4.8333721e-002
  2.1149667e-002 -5.8532650e-002
  3.5592298e-002 -4.8472829e-002
  5.6502965e-002 -2.4823034e-002
  7.1772238e-002 -4.7701631e-003
  7.4232088e-002 -1.6786772e-003
  6.7090442e-002 -1.4621369e-002
  6.1209589e-002 -2.9495253e-002
  6.6941997e-002 -3.0044151e-002
  8.6913203e-002 -9.7969663e-003
  1.1497426e-001  2.4053978e-002
  1.4135427e-001  5.6874093e-002
  1.5959663e-001  7.7403970e-002
  1.7006308e-001  8.4817986e-002
  1.7804680e-001  8.7345584e-002
  1.8876015e-001  9.4622734e-002
  2.0355879e-001  1.1037190e-001
  2.1997967e-001  1.3086390e-001
  2.3483787e-001  1.4932666e-001
  2.4714392e-001  1.6208796e-001
  2.5813255e-001  1.7093031e-001
  2.6886406e-001  1.8017849e-001
  2.7772964e-001  1.9186936e-001
  2.8080202e-001  2.0332443e-001
  2.7476022e-001  2.0916917e-001
  2.5994606e-001  2.0593189e-001
  2.4066544e-001  1.9502696e-001
  2.2209808e-001  1.8145590e-001
  2.0613328e-001  1.6931288e-001
  1.8957943e-001  1.5795473e-001
  1.6668740e-001  1.4233886e-001
  1.3420842e-001  1.1743015e-001
  9.5132091e-002  8.3175184e-002
  5.7867076e-002  4.5838542e-002
  3.1152162e-002  1.4398684e-002
  1.8236466e-002 -5.3759919e-003
  1.4717361e-002 -1.4638935e-002
  1.1793238e-002 -2.0099563e-002
  2.5471598e-003 -2.8723497e-002
 -1.3319086e-002 -4.2638906e-002
 -2.9913089e-002 -5.8272017e-002
 -4.0176085e-002 -7.0047712e-002
 -4.1723207e-002 -7.5549856e-002
 -3.8879752e-002 -7.7729796e-002
 -3.9333038e-002 -8.2275646e-002
 -4.8054054e-002 -9.2362995e-002
 -6.3051918e-002 -1.0508084e-001
 -7.6369132e-002 -1.1279135e-001
 -7.9666657e-002 -1.0872469e-001
 -7.0297721e-002 -9.2621553e-002
 -5.3323038e-002 -7.1929990e-002
 -3.8127132e-002 -5.7352201e-002
 -3.2151659e-002 -5.5816141e-002
 -3.6248914e-002 -6.5922320e-002
 -4.4961797e-002 -7.9289362e-002
 -5.1018518e-002 -8.6659988e-002
 -5.0656530e-002 -8.4422494e-002
 -4.5681826e-002 -7.6654502e-002
 -4.1115814e-002 -7.1370933e-002
 -4.0634904e-002 -7.4010289e-002
 -4.3613209e-002 -8.3152558e-002
 -4.6051855e-002 -9.1718308e-002
 -4.4378748e-002 -9.2614855e-002
 -3.8999686e-002 -8.4525735e-002
 -3.4528840e-002 -7.3339330e-002
 -3.6398651e-002 -6.8046102e-002
 -4.6383608e-002 -7.4106768e-002
 -6.0609413e-002 -8.9214977e-002
 -7.1755744e-002 -1.0465163e-001
 -7.3893658e-002 -1.1128599e-001
 -6.6542362e-002 -1.0587336e-001
 -5.4906554e-002 -9.3138886e-002
 -4.6350404e-002 -8.2380678e-002
 -4.5566931e-002 -8.1053929e-002
 -5.1871166e-002 -8.9992722e-002
 -6.0322147e-002 -1.0345191e-001
 -6.5573903e-002 -1.1363912e-001
 -6.5397474e-002 -1.1610153e-001
 -6.1596913e-002 -1.1218956e-001
 -5.8023768e-002 -1.0716342e-001
 -5.7580934e-002 -1.0581782e-001
 -6.0546862e-002 -1.0914787e-001
 -6.5070143e-002 -1.1432665e-001
 -6.9110519e-002 -1.1765168e-001
 -7.1878429e-002 -1.1769652e-001
 -7.3720663e-002 -1.1611999e-001
 -7.4850142e-002 -1.1567697e-001
 -7.4472474e-002 -1.1744781e-001
 -7.1216240e-002 -1.1971054e-001
 -6.4542885e-002 -1.1952053e-001
 -5.5806271e-002 -1.1555435e-001
 -4.7778456e-002 -1.0968816e-001
 -4.3045786e-002 -1.0587685e-001
 -4.2389985e-002 -1.0704346e-001
 -4.4682297e-002 -1.1267958e-001
 -4.8303729e-002 -1.1918432e-001
 -5.2724990e-002 -1.2275949e-001
 -5.8596554e-002 -1.2241032e-001
 -6.6284229e-002 -1.2058453e-001
 -7.4116239e-002 -1.2065910e-001
 -7.8543382e-002 -1.2366937e-001
 -7.6590670e-002 -1.2717050e-001
 -6.9110753e-002 -1.2734945e-001
 -6.1588324e-002 -1.2300431e-001
 -6.1274530e-002 -1.1780081e-001
 -7.1861109e-002 -1.1830676e-001
 -8.9552619e-002 -1.2873814e-001
 -1.0411115e-001 -1.4640565e-001
 -1.0508046e-001 -1.6190166e-001
 -8.9288148e-002 -1.6469875e-001
 -6.3978344e-002 -1.5049007e-001
 -4.2699285e-002 -1.2474330e-001
 -3.6182249e-002 -9.9407016e-002
 -4.4586428e-002 -8.4822098e-002
 -5.6949671e-002 -8.2748722e-002
 -5.8935495e-002 -8.5910844e-002
 -4.3455030e-002 -8.4480476e-002
 -1.6386791e-002 -7.4431149e-002
  7.2752755e-003 -6.1026251e-002
  1.4332768e-002 -5.4385685e-002
  3.3180158e-003 -6.0678259e-002
 -1.4280391e-002 -7.6191440e-002
 -2.2718920e-002 -8.9646801e-002
 -1.4443442e-002 -9.1521325e-002
  3.4406247e-003 -8.2836734e-002
  1.4102364e-002 -7.5658136e-002
  3.9931052e-003 -8.3876783e-002
 -2.5865165e-002 -1.1094224e-001
 -5.9470351e-002 -1.4486893e-001
 -7.7266751e-002 -1.6579352e-001
 -7.1089194e-002 -1.6140738e-001
 -5.0900890e-002 -1.3824968e-001
 -3.7436739e-002 -1.1866817e-001
 -4.5704365e-002 -1.2396808e-001
 -7.2165182e-002 -1.5599959e-001
 -9.6441451e-002 -1.9260284e-001
 -9.7471166e-002 -2.0309946e-001
 -7.2113927e-002 -1.7419383e-001
 -4.0545300e-002 -1.2601698e-001
 -3.1549716e-002 -1.0241365e-001
 -5.6298369e-002 -1.3751847e-001
 -9.0033685e-002 -2.2023782e-001
 -7.8438872e-002 -2.8453291e-001
  3.0377647e-002 -2.3946271e-001
  2.4642678e-001 -2.6192143e-002
  5.1735105e-001  3.3246028e-001
  7.4399495e-001  7.2454082e-001
  8.2716996e-001  9.9481021e-001
  7.1999645e-001  1.0217864e+000
  4.5497454e-001  7.8235760e-001
  1.2922795e-001  3.6581656e-001
 -1.4384242e-001 -7.1424927e-002
 -2.8845628e-001 -3.8385968e-001
 -2.9595138e-001 -5.0276834e-001
 -2.1609800e-001 -4.5483179e-001
 -1.2003165e-001 -3.2875003e-001
 -5.9660869e-002 -2.1604292e-001
 -4.7104821e-002 -1.6388531e-001
 -6.1757884e-002 -1.6478085e-001
 -7.4477095e-002 -1.8110102e-001
 -6.9847280e-002 -1.8116078e-001
 -5.2574718e-002 -1.6051565e-001
 -3.7608688e-002 -1.3745062e-001
 -3.4982240e-002 -1.3179836e-001
 -4.1906000e-002 -1.4657132e-001
 -4.6963861e-002 -1.6652191e-001
 -4.1056585e-002 -1.7240655e-001
 -2.5311000e-002 -1.5756968e-001
 -9.6442238e-003 -1.3296695e-001
 -4.0169253e-003 -1.1729431e-001
 -9.9211896e-003 -1.2115823e-001
 -1.9285064e-002 -1.3859091e-001
 -2.1144483e-002 -1.5236614e-001
 -1.0453939e-002 -1.4831574e-001
  8.1977396e-003 -1.2669834e-001
  2.4740515e-002 -1.0158282e-001
  3.1939187e-002 -8.9192523e-002
  3.1200570e-002 -9.4764581e-002
  3.1313288e-002 -1.0851547e-001
  4.1287312e-002 -1.1362595e-001
  6.3151953e-002 -9.9649581e-002
  9.0417586e-002 -7.0503771e-002
  1.1307936e-001 -4.1062222e-002
  1.2519555e-001 -2.5344351e-002
  1.2904615e-001 -2.5851834e-002
  1.3292947e-001 -3.2302283e-002
  1.4457411e-001 -3.0296947e-002
  1.6537493e-001 -1.2827284e-002
  1.8962805e-001  1.4544458e-002
  2.0910988e-001  3.8594214e-002
  2.1901537e-001  4.9117914e-002
  2.2095536e-001  4.6796024e-002
  2.2097459e-001  4.2521576e-002
  2.2473521e-001  4.8502193e-002
  2.3346441e-001  6.8809192e-002
  2.4370594e-001  9.6466195e-002
  2.5032148e-001  1.1875046e-001
  2.4986910e-001  1.2610082e-001
  2.4185171e-001  1.1775115e-001
  2.2746783e-001  1.0025921e-001
  2.0761899e-001  8.1043834e-002
  1.8231590e-001  6.2623806e-002
  1.5199152e-001  4.2099255e-002
  1.1907450e-001  1.5527908e-002
  8.7892808e-002 -1.7132726e-002
  6.2469299e-002 -5.1003799e-002
  4.3821967e-002 -7.9920979e-002
  2.9187512e-002 -1.0130305e-001
  1.4210223e-002 -1.1786323e-001
 -3.3403233e-003 -1.3454133e-001
 -2.1195558e-002 -1.5338233e-001
 -3.3750777e-002 -1.7096720e-001
 -3.6187600e-002 -1.8087816e-001
 -2.8562854e-002 -1.7936012e-001
 -1.6584443e-002 -1.6928200e-001
 -8.4017498e-003 -1.5900056e-001
 -9.3847727e-003 -1.5648021e-001
 -1.8701223e-002 -1.6336413e-001
 -3.0045859e-002 -1.7367447e-001
 -3.6121330e-002 -1.7844591e-001
 -3.3508690e-002 -1.7266108e-001
 -2.4630071e-002 -1.5915006e-001
 -1.5631396e-002 -1.4639802e-001
 -1.1963344e-002 -1.4207643e-001
 -1.4906412e-002 -1.4744195e-001
 -2.1207046e-002 -1.5682177e-001
 -2.5808073e-002 -1.6241994e-001
 -2.5254027e-002 -1.6032845e-001
 -1.9505075e-002 -1.5300133e-001
 -1.1188846e-002 -1.4646252e-001
 -3.3574608e-003 -1.4484130e-001
  2.3375841e-003 -1.4695779e-001
  5.9002164e-003 -1.4770727e-001
  8.0429628e-003 -1.4289515e-001
  9.2143300e-003 -1.3324263e-001
  9.4745377e-003 -1.2412123e-001
  9.0274914e-003 -1.2122489e-001
  8.6866781e-003 -1.2579666e-001
  9.5408185e-003 -1.3353289e-001
  1.1995415e-002 -1.3811534e-001
  1.5186335e-002 -1.3642795e-001
  1.7317838e-002 -1.3112722e-001
  1.6922391e-002 -1.2828746e-001
  1.3982151e-002 -1.3211990e-001
  1.0027678e-002 -1.4109053e-001
  7.1492580e-003 -1.4877164e-001
  6.7256631e-003 -1.4874216e-001
  8.7831995e-003 -1.3967698e-001
  1.2325181e-002 -1.2651334e-001
  1.6185651e-002 -1.1673869e-001
  1.9507702e-002 -1.1488929e-001
  2.1620796e-002 -1.1965978e-001
  2.1718215e-002 -1.2570622e-001
  1.9145602e-002 -1.2829363e-001
  1.4250439e-002 -1.2677512e-001
  9.0496960e-003 -1.2409541e-001
  6.6121533e-003 -1.2315811e-001
  9.1496850e-003 -1.2358467e-001
  1.5986709e-002 -1.2204894e-001
  2.3254847e-002 -1.1592742e-001
  2.6108666e-002 -1.0682343e-001
  2.2260859e-002 -1.0037719e-001
  1.4227738e-002 -1.0188163e-001
  8.2201814e-003 -1.1120925e-001
  9.8839405e-003 -1.2169076e-001
  1.9901824e-002 -1.2456091e-001
  3.2877864e-002 -1.1587568e-001
  4.0819328e-002 -1.0026308e-001
  3.8994469e-002 -8.7966451e-002
  2.9837605e-002 -8.6948942e-002
  2.1563638e-002 -9.6275598e-002
  2.2154178e-002 -1.0632617e-001
  3.2870056e-002 -1.0629044e-001
  4.6545366e-002 -9.3232543e-002
  5.2320387e-002 -7.5365715e-002
  4.3767510e-002 -6.6250537e-002
  2.4369366e-002 -7.3984759e-002
  5.9865697e-003 -9.3810102e-002
  9.3237123e-004 -1.1021933e-001
  1.3201796e-002 -1.0795432e-001
  3.5361062e-002 -8.3500698e-002
  5.3606745e-002 -4.8091314e-002
  5.7667732e-002 -1.9805150e-002
  4.8053845e-002 -1.0544827e-002
  3.5455400e-002 -1.7754538e-002
  3.2771984e-002 -2.7247423e-002
  4.5752924e-002 -2.4768599e-002
  6.9137100e-002 -7.1192098e-003
  9.0998670e-002  1.5859550e-002
  1.0172913e-001  2.9808625e-002
  1.0056738e-001  2.7638355e-002
  9.4681700e-002  1.4742117e-002
  9.1987724e-002  3.4422099e-003
  9.3782676e-002  1.5277151e-003
  9.3506449e-002  4.9614445e-003
  8.2772773e-002  1.4600845e-003
  5.9639163e-002 -1.7672166e-002
  3.1957837e-002 -4.7689822e-002
  1.2502570e-002 -7.1809936e-002
  9.2614383e-003 -7.4054003e-002
  1.8770293e-002 -5.3495501e-002
  2.8425282e-002 -2.7326623e-002
  2.6516849e-002 -1.8485625e-002
  1.2199566e-002 -3.6454293e-002
 -3.3255884e-003 -6.7261102e-002
 -6.3053870e-003 -8.2871772e-002
  6.4970886e-003 -6.5001951e-002
  2.2498685e-002 -2.4768168e-002
  2.2464000e-002  3.2632104e-004
 -3.9813075e-004 -2.4954273e-002
 -2.5499769e-002 -9.7257392e-002
 -8.1298770e-003 -1.5893291e-001
  9.6116912e-002 -1.2122201e-001
  2.9827470e-001  8.1395890e-002
  5.5570872e-001  4.3768263e-001
  7.8104517e-001  8.4403524e-001
  8.7996390e-001  1.1435275e+000
  7.9875614e-001  1.2024184e+000
  5.5483614e-001  9.8150322e-001
  2.3163418e-001  5.6003833e-001
 -6.0309617e-002  9.7224773e-002
 -2.3478436e-001 -2.4686545e-001
 -2.6589031e-001 -3.8564992e-001
 -1.9063022e-001 -3.3539029e-001
 -8.0071637e-002 -1.8802031e-001
  1.6312979e-003 -4.9608197e-002
  2.6554501e-002  1.6229765e-002
  6.8004465e-003  9.0867984e-003
 -2.4355551e-002 -2.8084945e-002
 -3.8417777e-002 -4.8948057e-002
 -2.7953360e-002 -3.4980191e-002
 -5.5021052e-003 -1.5442755e-004
  1.0206887e-002  2.7853379e-002
  8.9647929e-003  3.1813333e-002
 -5.2457716e-003  1.6300763e-002
 -1.9674210e-002  4.9308047e-004
 -2.3360523e-002  1.0469031e-003
 -1.4446789e-002  1.9544438e-002
  3.6397630e-004  4.3321937e-002
  1.2447518e-002  5.7228425e-002
  1.8121456e-002  5.5905854e-002
  2.0523603e-002  4.7088782e-002
  2.5821827e-002  4.4275227e-002
  3.7364427e-002  5.5545681e-002
  5.2465912e-002  7.7341971e-002
  6.4319579e-002  9.7645897e-002
  6.7258616e-002  1.0541355e-001
  6.1426608e-002  9.8862393e-002
  5.3311953e-002  8.6617527e-002
  5.1980885e-002  8.1535682e-002
  6.3580182e-002  9.2161681e-002
  8.7798711e-002  1.1787996e-001
  1.1824173e-001  1.5035570e-001
  1.4628792e-001  1.7943621e-001
  1.6570065e-001  1.9892957e-001
  1.7529881e-001  2.0877271e-001
  1.7857843e-001  2.1329458e-001
  1.8099139e-001  2.1766896e-001
  1.8692095e-001  2.2538788e-001
  1.9787202e-001  2.3768300e-001
  2.1244842e-001  2.5418270e-001
  2.2759767e-001  2.7354057e-001
  2.4001415e-001  2.9345606e-001
  2.4711908e-001  3.1071467e-001
  2.4737052e-001  3.2188319e-001
  2.4026557e-001  3.2473201e-001
  2.2632991e-001  3.1937426e-001
  2.0702548e-001  3.0806370e-001
  1.8442046e-001  2.9359728e-001
  1.6067346e-001  2.7750183e-001
  1.3727794e-001  2.5923328e-001
  1.1461443e-001  2.3714934e-001
  9.2034435e-002  2.1057673e-001
  6.8609865e-002  1.8093034e-001
  4.3960763e-002  1.5151957e-001
  1.8918761e-002  1.2591746e-001
 -4.6028819e-003  1.0603330e-001
 -2.4566101e-002  9.1279330e-002
 -3.9904320e-002  7.9311903e-002
 -5.1056009e-002  6.7762195e-002
 -5.9589906e-002  5.5730357e-002
 -6.7065840e-002  4.4149857e-002
 -7.3881380e-002  3.5035290e-002
 -7.9072293e-002  3.0099438e-002
 -8.1209559e-002  2.9664396e-002
 -7.9826707e-002  3.2372907e-002
 -7.6340002e-002  3.5763869e-002
 -7.3610861e-002  3.7412367e-002
 -7.4312343e-002  3.6101162e-002
 -7.9049270e-002  3.2544636e-002
 -8.5593015e-002  2.9211085e-002
 -8.9968945e-002  2.9086533e-002
 -8.8969516e-002  3.3865619e-002
 -8.2479917e-002  4.2521634e-002
 -7.4070614e-002  5.1319802e-002
 -6.9197056e-002  5.5633300e-002
 -7.2031453e-002  5.2662417e-002
 -8.2704170e-002  4.3498026e-002
 -9.6790691e-002  3.2984069e-002
 -1.0749761e-001  2.7173837e-002
 -1.0935019e-001  2.9782324e-002
 -1.0130251e-001  3.9803371e-002
 -8.7372859e-002  5.1921869e-002
 -7.4449455e-002  5.9529942e-002
 -6.8584903e-002  5.8450998e-002
 -7.1861168e-002  4.9132786e-002
 -8.1604860e-002  3.5988942e-002
 -9.2275313e-002  2.4577122e-002
 -9.8814276e-002  1.8460749e-002
 -9.9426115e-002  1.7719566e-002
 -9.6128486e-002  1.9746500e-002
 -9.2933991e-002  2.1426351e-002
 -9.2859948e-002  2.1146253e-002
 -9.5793136e-002  1.9454490e-002
 -9.8627987e-002  1.8188520e-002
 -9.7654420e-002  1.8915686e-002
 -9.1616267e-002  2.1747215e-002
 -8.3305433e-002  2.5117120e-002
 -7.8385985e-002  2.6519220e-002
 -8.1994134e-002  2.3735793e-002
 -9.5157041e-002  1.6074100e-002
 -1.1341400e-001  5.0783635e-003
 -1.2886864e-001 -5.7397407e-003
 -1.3457309e-001 -1.2250886e-002
 -1.2859708e-001 -1.1726199e-002
 -1.1513568e-001 -4.5020770e-003
 -1.0190023e-001  5.8317958e-003
 -9.5464833e-002  1.4103497e-002
 -9.7616314e-002  1.6376887e-002
 -1.0496205e-001  1.2199746e-002
 -1.1186077e-001  4.7113288e-003
 -1.1438330e-001 -1.5312739e-003
 -1.1248652e-001 -3.5916789e-003
 -1.0905048e-001 -1.8608936e-003
 -1.0689152e-001  7.7559477e-004
 -1.0640472e-001  1.5160044e-003
 -1.0574561e-001 -9.1906725e-005
 -1.0331596e-001 -2.1305753e-003
 -1.0014692e-001 -2.4567606e-003
 -9.9809417e-002 -1.0590116e-003
 -1.0556268e-001 -4.1118994e-004
 -1.1687337e-001 -3.1611386e-003
 -1.2852662e-001 -9.1880520e-003
 -1.3364446e-001 -1.4717039e-002
 -1.2888062e-001 -1.4871189e-002
 -1.1769252e-001 -8.0025287e-003
 -1.0869255e-001  1.8883746e-003
 -1.0961361e-001  7.2365607e-003
 -1.2119000e-001  2.5583854e-003
 -1.3569438e-001 -1.0526229e-002
 -1.4194379e-001 -2.3117010e-002
 -1.3355736e-001 -2.4939297e-002
 -1.1440439e-001 -1.2135277e-002
 -9.6790947e-002  9.2570947e-003
 -9.2834230e-002  2.7177312e-002
 -1.0534626e-001  3.2428080e-002
 -1.2491773e-001  2.5962098e-002
 -1.3581847e-001  1.8498589e-002
 -1.2683680e-001  2.2260199e-002
 -9.9391851e-002  4.0822940e-002
 -6.6850509e-002  6.5224627e-002
 -4.5473384e-002  7.9940667e-002
 -4.3495457e-002  7.4680465e-002
 -5.6363884e-002  5.2802220e-002
 -7.1474726e-002  2.9328864e-002
 -7.8421278e-002  1.9543973e-002
 -7.6819777e-002  2.6781917e-002
 -7.5624702e-002  3.9401537e-002
 -8.4811128e-002  3.9897787e-002
 -1.0631181e-001  1.9444104e-002
 -1.3169524e-001 -1.3895408e-002
 -1.4863930e-001 -4.0552483e-002
 -1.5087417e-001 -4.4895526e-002
 -1.4320576e-001 -2.8478715e-002
 -1.3714938e-001 -9.6717788e-003
 -1.4063961e-001 -8.8245740e-003
 -1.5061431e-001 -3.0384109e-002
 -1.5567914e-001 -5.7468401e-002
 -1.4737178e-001 -6.5250905e-002
 -1.3057714e-001 -4.4052761e-002
 -1.2253343e-001 -1.2838695e-002
 -1.3795363e-001 -8.4273269e-003
 -1.6976524e-001 -5.3722880e-002
 -1.8150111e-001 -1.2698206e-001
 -1.2190445e-001 -1.5835995e-001
  4.2786655e-002 -6.4339465e-002
  2.9773394e-001  1.9607313e-001
  5.7179532e-001  5.7875576e-001
  7.6319583e-001  9.5747771e-001
  7.8787910e-001  1.1782335e+000
  6.2405535e-001  1.1375306e+000
  3.2662375e-001  8.3955897e-001
  1.8715734e-003  3.9738113e-001
 -2.4366070e-001 -2.3641357e-002
 -3.5139054e-001 -2.8750503e-001
 -3.3014693e-001 -3.4772927e-001
 -2.3923558e-001 -2.5455252e-001
 -1.4885596e-001 -1.1089208e-001
 -1.0317429e-001 -8.7643121e-003
 -1.0597057e-001  1.4889016e-002
 -1.3217575e-001 -1.8682280e-002
 -1.5263874e-001 -6.1276214e-002
 -1.5373950e-001 -7.6570514e-002
 -1.4088057e-001 -6.0334877e-002
 -1.2778474e-001 -3.3298950e-002
 -1.2288934e-001 -1.8198274e-002
 -1.2364486e-001 -2.1201661e-002
 -1.2141255e-001 -3.0657862e-002
 -1.1100658e-001 -3.0819348e-002
 -9.5960330e-002 -1.6863497e-002
 -8.5400036e-002  1.3731864e-003
 -8.5756480e-002  8.8912671e-003
 -9.4641527e-002 -7.9792658e-004
 -1.0208526e-001 -1.9584593e-002
 -9.8143426e-002 -3.1077711e-002
 -8.0619969e-002 -2.3656765e-002
 -5.6814186e-002  4.6349336e-004
 -3.8079183e-002  2.7279986e-002
 -3.1462568e-002  4.2096640e-002
 -3.5023328e-002  4.0568512e-002
 -4.0043520e-002  3.1157220e-002
 -3.8036519e-002  2.7633414e-002
 -2.6791969e-002  3.8173253e-002
 -1.0976335e-002  5.9717979e-002
  2.6782600e-003  8.1636397e-002
  1.1430980e-002  9.5052613e-002
  1.8830047e-002  1.0006142e-001
  3.1489911e-002  1.0510139e-001
  5.3160087e-002  1.1942797e-001
  8.0959118e-002  1.4511678e-001
  1.0682824e-001  1.7507029e-001
  1.2317065e-001  1.9853645e-001
  1.2818669e-001  2.0945992e-001
  1.2701313e-001  2.1106177e-001
  1.2770204e-001  2.1304285e-001
  1.3518068e-001  2.2380919e-001
  1.4760926e-001  2.4380868e-001
  1.5766925e-001  2.6500723e-001
  1.5763545e-001  2.7662889e-001
  1.4444495e-001  2.7257962e-001
  1.2115719e-001  2.5500819e-001
  9.4337111e-002  2.3184191e-001
  6.9465706e-002  2.1057573e-001
  4.7981633e-002  1.9337536e-001
  2.7576687e-002  1.7675632e-001
  5.2067948e-003  1.5558115e-001
 -1.9947009e-002  1.2772794e-001
 -4.5694086e-002  9.5882315e-002
 -6.8570151e-002  6.5479978e-002
 -8.6329003e-002  4.0947228e-002
 -9.9227049e-002  2.3307957e-002
 -1.0917614e-001  1.0706756e-002
 -1.1779701e-001  1.0179526e-003
 -1.2499468e-001 -6.4482996e-003
 -1.2946913e-001 -1.1138597e-002
 -1.3029726e-001 -1.2951792e-002
 -1.2837283e-001 -1.3622060e-002
 -1.2639474e-001 -1.6202472e-002
 -1.2716942e-001 -2.2797578e-002
 -1.3153776e-001 -3.2482857e-002
 -1.3756109e-001 -4.1322253e-002
 -1.4163724e-001 -4.4816004e-002
 -1.4092414e-001 -4.1108870e-002
 -1.3526737e-001 -3.2543544e-002
 -1.2743257e-001 -2.4364365e-002
 -1.2137734e-001 -2.1387527e-002
 -1.1978763e-001 -2.4925688e-002
 -1.2252373e-001 -3.2042221e-002
 -1.2698475e-001 -3.7572317e-002
 -1.2998278e-001 -3.7408414e-002
 -1.2982784e-001 -3.0922434e-002
 -1.2718972e-001 -2.1077592e-002
 -1.2428093e-001 -1.2418361e-002
 -1.2308172e-001 -8.4038771e-003
 -1.2386168e-001 -9.6975524e-003
 -1.2512197e-001 -1.4284051e-002
 -1.2492615e-001 -1.9012158e-002
 -1.2250883e-001 -2.1471936e-002
 -1.1897961e-001 -2.1131453e-002
 -1.1651364e-001 -1.9194307e-002
 -1.1671831e-001 -1.7570221e-002
 -1.1931164e-001 -1.7641931e-002
 -1.2224054e-001 -1.9558078e-002
 -1.2320100e-001 -2.2424392e-002
 -1.2145265e-001 -2.5155796e-002
 -1.1845520e-001 -2.7335106e-002
 -1.1685135e-001 -2.9506201e-002
 -1.1838770e-001 -3.2596344e-002
 -1.2243321e-001 -3.6944305e-002
 -1.2622063e-001 -4.1637852e-002
 -1.2683728e-001 -4.4870144e-002
 -1.2345147e-001 -4.5102565e-002
 -1.1816178e-001 -4.2334844e-002
 -1.1457159e-001 -3.8397874e-002
 -1.1512889e-001 -3.5908266e-002
 -1.1921674e-001 -3.6558493e-002
 -1.2352501e-001 -4.0030068e-002
 -1.2447626e-001 -4.4337581e-002
 -1.2097911e-001 -4.7462894e-002
 -1.1531698e-001 -4.8912492e-002
 -1.1151664e-001 -4.9963212e-002
 -1.1220843e-001 -5.2210904e-002
 -1.1654478e-001 -5.5794871e-002
 -1.2078606e-001 -5.8822462e-002
 -1.2115944e-001 -5.8736396e-002
 -1.1686071e-001 -5.4708727e-002
 -1.1068336e-001 -4.8904800e-002
 -1.0684204e-001 -4.5374374e-002
 -1.0758558e-001 -4.7094589e-002
 -1.1134908e-001 -5.3430517e-002
 -1.1389028e-001 -6.0192108e-002
 -1.1170838e-001 -6.2678448e-002
 -1.0501460e-001 -5.9445192e-002
 -9.7880639e-002 -5.3759778e-002
 -9.5286513e-002 -5.1321049e-002
 -9.9402486e-002 -5.5804905e-002
 -1.0788828e-001 -6.5639697e-002
 -1.1561029e-001 -7.4811517e-002
 -1.1827431e-001 -7.7301443e-002
 -1.1521618e-001 -7.1704407e-002
 -1.0926847e-001 -6.2580258e-002
 -1.0397638e-001 -5.7060038e-002
 -1.0077046e-001 -5.9115959e-002
 -9.8231430e-002 -6.6319213e-002
 -9.4326434e-002 -7.1917212e-002
 -8.9103220e-002 -7.0520696e-002
 -8.5358103e-002 -6.2992326e-002
 -8.6293415e-002 -5.6203789e-002
 -9.2123218e-002 -5.7530756e-002
 -9.8787774e-002 -6.8354895e-002
 -1.0040903e-001 -8.1979494e-002
 -9.4013848e-002 -8.8103297e-002
 -8.2672487e-002 -8.0700345e-002
 -7.4002083e-002 -6.3048362e-002
 -7.4521743e-002 -4.5626035e-002
 -8.3941274e-002 -3.8104245e-002
 -9.4127217e-002 -4.1672346e-002
 -9.4056077e-002 -4.7860053e-002
 -7.7609533e-002 -4.5172429e-002
 -4.8337716e-002 -2.8455824e-002
 -1.7530776e-002 -3.6423026e-003
  3.2591148e-003  1.6153918e-002
  9.6531286e-003  2.0212455e-002
  6.1780058e-003  7.8552169e-003
  1.1721359e-003 -1.1894104e-002
 -8.6829114e-004 -2.8285938e-002
 -3.0090895e-003 -3.7596606e-002
 -1.2477005e-002 -4.5150866e-002
 -3.3017705e-002 -5.8879622e-002
 -5.9626929e-002 -8.0058637e-002
 -8.0764611e-002 -9.9915219e-002
 -8.6909932e-002 -1.0599199e-001
 -7.8573781e-002 -9.3627894e-002
 -6.6656356e-002 -7.2392390e-002
 -6.3892144e-002 -6.0460876e-002
 -7.3905216e-002 -6.9885642e-002
 -8.7419700e-002 -9.4639358e-002
 -8.9968581e-002 -1.1294194e-001
 -7.5873120e-002 -1.0475097e-001
 -5.6606137e-002 -7.1864960e-002
 -5.3988994e-002 -4.2710383e-002
 -8.0044500e-002 -5.3194441e-002
 -1.1753994e-001 -1.1346878e-001
 -1.1842317e-001 -1.8483096e-001
 -2.7292634e-002 -1.8879368e-001
  1.8065279e-001 -5.0442277e-002
  4.7090701e-001  2.4712481e-001
  7.5210739e-001  6.3310416e-001
  9.1390703e-001  9.6879682e-001
  8.8203375e-001  1.1120622e+000
  6.5905470e-001  9.9175398e-001
  3.2612154e-001  6.4829799e-001
  3.4411249e-003  2.1514716e-001
 -2.0822717e-001 -1.4895553e-001
 -2.7183177e-001 -3.3745436e-001
 -2.2075587e-001 -3.3928211e-001
 -1.2816096e-001 -2.2680225e-001
 -6.0760549e-002 -1.0144698e-001
 -4.5750547e-002 -3.4090142e-002
 -6.7587111e-002 -3.5474769e-002
 -9.0912988e-002 -6.8804295e-002
 -9.0081732e-002 -8.8297823e-002
 -6.5013030e-002 -7.3787774e-002
 -3.5775702e-002 -3.9312456e-002
 -2.3707716e-002 -1.4911776e-002
 -3.4952714e-002 -1.9732957e-002
 -5.7887550e-002 -4.7754377e-002
 -7.4178082e-002 -7.4997556e-002
 -7.3210507e-002 -7.9913141e-002
 -5.8696392e-002 -5.9787000e-002
 -4.3485830e-002 -3.0898516e-002
 -3.8099612e-002 -1.3973606e-002
 -4.2580304e-002 -1.7561961e-002
 -4.7575666e-002 -3.2362087e-002
 -4.2910548e-002 -4.0002284e-002
 -2.6183808e-002 -2.8303837e-002
 -4.5951368e-003 -7.1366126e-004
  1.0977587e-002  2.7027217e-002
  1.4504036e-002  3.9511585e-002
  9.2420645e-003  3.3389119e-002
  4.9344139e-003  1.9316156e-002
  1.0467552e-002  1.3410622e-002
  2.7795700e-002  2.5416245e-002
  5.1496290e-002  5.2585701e-002
  7.3616553e-002  8.3204928e-002
  8.9615841e-002  1.0604699e-001
  1.0079079e-001  1.1804105e-001
  1.1188704e-001  1.2473869e-001
  1.2639263e-001  1.3424082e-001
  1.4356519e-001  1.5020830e-001
  1.5937991e-001  1.6954276e-001
  1.7017821e-001  1.8594177e-001
  1.7573867e-001  1.9569075e-001
  1.7924378e-001  2.0062570e-001
  1.8445205e-001  2.0608939e-001
  1.9238748e-001  2.1593418e-001
  2.0037062e-001  2.2903959e-001
  2.0391583e-001  2.4010135e-001
  1.9986126e-001  2.4378344e-001
  1.8821089e-001  2.3861846e-001
  1.7142854e-001  2.2737547e-001
  1.5212494e-001  2.1400856e-001
  1.3129963e-001  2.0002920e-001
  1.0838035e-001  1.8342000e-001
  8.2913378e-002  1.6106780e-001
  5.6024027e-002  1.3242477e-001
  3.0386114e-002  1.0083045e-001
  8.5016488e-003  7.1693174e-002
 -8.9887278e-003  4.8751256e-002
 -2.3573603e-002  3.1550653e-002
 -3.7450951e-002  1.6285926e-002
 -5.1518550e-002 -6.7806612e-004
 -6.4539635e-002 -1.9565864e-002
 -7.4088180e-002 -3.6825247e-002
 -7.8560509e-002 -4.7916977e-002
 -7.8676449e-002 -5.1062501e-002
 -7.7205494e-002 -4.8815817e-002
 -7.7117087e-002 -4.6237673e-002
 -7.9672948e-002 -4.7231755e-002
 -8.3832856e-002 -5.1888516e-002
 -8.7385380e-002 -5.6933718e-002
 -8.8748460e-002 -5.8761268e-002
 -8.8063963e-002 -5.6535120e-002
 -8.6821099e-002 -5.2893360e-002
 -8.6396198e-002 -5.1759101e-002
 -8.6830260e-002 -5.5044049e-002
 -8.6817367e-002 -6.0993226e-002
 -8.4791997e-002 -6.5355323e-002
 -8.0344548e-002 -6.4568452e-002
 -7.4704018e-002 -5.8434208e-002
 -7.0004881e-002 -5.0317084e-002
 -6.7888074e-002 -4.4839106e-002
 -6.8491088e-002 -4.4849320e-002
 -7.0473703e-002 -4.9785790e-002
 -7.2000332e-002 -5.6480083e-002
 -7.1971218e-002 -6.1529183e-002
 -7.0628103e-002 -6.3430013e-002
 -6.9272540e-002 -6.3074242e-002
 -6.9278341e-002 -6.2526426e-002
 -7.1135804e-002 -6.3313823e-002
 -7.4073102e-002 -6.5525192e-002
 -7.6477930e-002 -6.8210018e-002
 -7.6881609e-002 -7.0559970e-002
 -7.4929078e-002 -7.2729534e-002
 -7.1816394e-002 -7.5725907e-002
 -6.9796061e-002 -8.0476342e-002
 -7.0886149e-002 -8.6796083e-002
 -7.5473726e-002 -9.3138093e-002
 -8.1716308e-002 -9.7304612e-002
 -8.6292854e-002 -9.7701304e-002
 -8.6183075e-002 -9.4365750e-002
 -8.0560320e-002 -8.9117522e-002
 -7.1484132e-002 -8.4696955e-002
 -6.2789822e-002 -8.3364718e-002
 -5.7789906e-002 -8.5674584e-002
 -5.7316653e-002 -9.0224585e-002
 -5.9471785e-002 -9.4564464e-002
 -6.1248663e-002 -9.6702489e-002
 -6.0815544e-002 -9.6343915e-002
 -5.8799455e-002 -9.4945023e-002
 -5.7563053e-002 -9.4569623e-002
 -5.9020595e-002 -9.6204415e-002
 -6.2872836e-002 -9.8878703e-002
 -6.6750837e-002 -1.0037235e-001
 -6.8209303e-002 -9.9074153e-002
 -6.6898393e-002 -9.5597061e-002
 -6.5038258e-002 -9.2754901e-002
 -6.5602735e-002 -9.3695187e-002
 -6.9619236e-002 -9.9369096e-002
 -7.4816069e-002 -1.0741087e-001
 -7.7082174e-002 -1.1347916e-001
 -7.3693209e-002 -1.1429720e-001
 -6.5885857e-002 -1.1003034e-001
 -5.8393923e-002 -1.0447143e-001
 -5.6159885e-002 -1.0212873e-001
 -6.0403052e-002 -1.0469296e-001
 -6.7368485e-002 -1.0974913e-001
 -7.1036415e-002 -1.1288073e-001
 -6.7772178e-002 -1.1156520e-001
 -5.9361779e-002 -1.0767895e-001
 -5.1884985e-002 -1.0623190e-001
 -5.1105127e-002 -1.1112130e-001
 -5.7815232e-002 -1.2118571e-001
 -6.7002424e-002 -1.3019914e-001
 -7.1598157e-002 -1.3136861e-001
 -6.8013561e-002 -1.2311568e-001
 -5.9029370e-002 -1.1135349e-001
 -5.1709356e-002 -1.0593942e-001
 -5.1809641e-002 -1.1335284e-001
 -5.9087513e-002 -1.3104220e-001
 -6.7360929e-002 -1.4824302e-001
 -6.9355754e-002 -1.5314160e-001
 -6.2522659e-002 -1.4140266e-001
 -5.1046439e-002 -1.1947788e-001
 -4.2354828e-002 -9.9953990e-002
 -4.0864180e-002 -9.2238477e-002
 -4.4101356e-002 -9.5749742e-002
 -4.4452045e-002 -1.0096444e-001
 -3.5268939e-002 -9.7579202e-002
 -1.6447463e-002 -8.3339213e-002
  5.2010458e-003 -6.6256218e-002
  2.1106148e-002 -5.8269028e-002
  2.7400873e-002 -6.5336932e-002
  2.7209388e-002 -8.2249196e-002
  2.6752164e-002 -9.6827678e-002
  2.8688039e-002 -1.0036742e-001
  2.8593606e-002 -9.5721804e-002
  1.8302135e-002 -9.5702918e-002
 -6.2222756e-003 -1.1228454e-001
 -3.9045361e-002 -1.4505186e-001
 -6.6177034e-002 -1.7899161e-001
 -7.4825010e-002 -1.9470820e-001
 -6.3213612e-002 -1.8392942e-001
 -4.2695253e-002 -1.5765855e-001
 -2.9630854e-002 -1.3918180e-001
 -3.2839584e-002 -1.4605719e-001
 -4.6799125e-002 -1.7501877e-001
 -5.6913420e-002 -2.0312792e-001
 -5.3320755e-002 -2.0639161e-001
 -4.1684255e-002 -1.8228652e-001
 -3.9999571e-002 -1.5690078e-001
 -6.0874781e-002 -1.6694100e-001
 -9.1487766e-002 -2.2600430e-001
 -8.8855776e-002 -2.9974797e-001
  4.2389900e-004 -3.1255065e-001
  2.0379472e-001 -1.8893951e-001
  4.9230329e-001  9.2561961e-002
  7.7901235e-001  4.6825681e-001
  9.5334614e-001  8.0581241e-001
  9.3544197e-001  9.6492193e-001
  7.1985009e-001  8.6961414e-001
  3.8200340e-001  5.5007661e-001
  4.2285600e-002  1.2866413e-001
 -1.9213548e-001 -2.4195998e-001
 -2.7487783e-001 -4.5261398e-001
 -2.3187021e-001 -4.8185210e-001
 -1.3429752e-001 -3.8934391e-001
 -5.2859837e-002 -2.6845237e-001
 -2.2001565e-002 -1.9081555e-001
 -3.2684812e-002 -1.7564878e-001
 -5.2242553e-002 -1.9659107e-001
 -5.3321222e-002 -2.1371916e-001
 -3.1604968e-002 -2.0505089e-001
 -3.1916565e-003 -1.7730291e-001
  1.2170176e-002 -1.5342100e-001
  7.1984828e-003 -1.5078419e-001
 -9.0736289e-003 -1.6785615e-001
 -2.0397819e-002 -1.8769872e-001
 -1.6467742e-002 -1.9294920e-001
  4.4035155e-004 -1.7912717e-001
  1.9432007e-002 -1.5628938e-001
  3.0879317e-002 -1.3939904e-001
  3.3699451e-002 -1.3626177e-001
  3.4718875e-002 -1.4259187e-001
  4.1689782e-002 -1.4710605e-001
  5.6471520e-002 -1.4133992e-001
  7.3949545e-002 -1.2592050e-001
  8.7105620e-002 -1.0872206e-001
  9.3375482e-002 -9.7470799e-002
  9.6785146e-002 -9.3391689e-002
  1.0428144e-001 -9.0980010e-002
  1.1964899e-001 -8.3459961e-002
  1.4026909e-001 -6.8790479e-002
  1.5948205e-001 -5.1071683e-002
  1.7235404e-001 -3.6498135e-002
  1.8002967e-001 -2.7532620e-002
  1.8890444e-001 -2.0542194e-002
  2.0521261e-001 -8.8659707e-003
  2.2958157e-001  1.1269407e-002
  2.5599493e-001  3.7112658e-002
  2.7624308e-001  6.1155273e-002
  2.8621523e-001  7.6866717e-002
  2.8917515e-001  8.3797469e-002
  2.9327223e-001  8.8124901e-002
  3.0534544e-001  9.7665233e-002
  3.2547713e-001  1.1579745e-001
  3.4668162e-001  1.3879776e-001
  3.5963561e-001  1.5843056e-001
  3.5880562e-001  1.6766526e-001
  3.4546283e-001  1.6508871e-001
  3.2564033e-001  1.5471249e-001
  3.0513121e-001  1.4182006e-001
  2.8545431e-001  1.2833877e-001
  2.6388539e-001  1.1155006e-001
  2.3703737e-001  8.6987968e-002
  2.0487130e-001  5.3094153e-002
  1.7184044e-001  1.3813560e-002
  1.4422158e-001 -2.3006347e-002
  1.2588007e-001 -5.0226601e-002
  1.1579028e-001 -6.5628338e-002
  1.0906831e-001 -7.2807047e-002
  1.0065636e-001 -7.8230885e-002
  8.8785384e-002 -8.6798387e-002
  7.5716727e-002 -9.9029154e-002
  6.5604332e-002 -1.1153630e-001
  6.1342201e-002 -1.1994155e-001
  6.2822116e-002 -1.2192692e-001
  6.7571385e-002 -1.1837674e-001
  7.2997542e-002 -1.1218521e-001
  7.8015653e-002 -1.0617933e-001
  8.2905070e-002 -1.0175351e-001
  8.7821962e-002 -9.8964016e-002
  9.1602034e-002 -9.7480251e-002
  9.2186660e-002 -9.7284900e-002
  8.8444724e-002 -9.8481367e-002
  8.1840121e-002 -1.0056644e-001
  7.6389096e-002 -1.0201957e-001
  7.6412345e-002 -1.0092324e-001
  8.3624790e-002 -9.6217348e-002
  9.5703456e-002 -8.8603681e-002
  1.0745732e-001 -8.0400627e-002
  1.1404846e-001 -7.4226954e-002
  1.1409787e-001 -7.1378397e-002
  1.1040215e-001 -7.1123835e-002
  1.0784953e-001 -7.1345905e-002
  1.0983318e-001 -7.0162282e-002
  1.1571496e-001 -6.7407570e-002
  1.2117351e-001 -6.4853439e-002
  1.2130167e-001 -6.4898116e-002
  1.1436974e-001 -6.8567327e-002
  1.0358142e-001 -7.4211928e-002
  9.5419877e-002 -7.7952346e-002
  9.5592128e-002 -7.5838846e-002
  1.0507374e-001 -6.6513922e-002
  1.1892707e-001 -5.2706944e-002
  1.2898117e-001 -4.0245917e-002
  1.2874017e-001 -3.4920125e-002
  1.1754055e-001 -3.8935288e-002
  1.0116237e-001 -4.9240764e-002
  8.8463314e-002 -5.9041027e-002
  8.6092186e-002 -6.1757238e-002
  9.4568993e-002 -5.5098052e-002
  1.0825763e-001 -4.2479961e-002
  1.1917651e-001 -3.0808702e-002
  1.2200118e-001 -2.5983803e-002
  1.1698504e-001 -2.9152120e-002
  1.0898442e-001 -3.6279408e-002
  1.0345270e-001 -4.1340219e-002
  1.0251301e-001 -4.0660817e-002
  1.0377178e-001 -3.5352884e-002
  1.0265230e-001 -3.0043185e-002
  9.6333251e-002 -2.8914067e-002
  8.6252731e-002 -3.2249077e-002
  7.7234437e-002 -3.6222838e-002
  7.3938558e-002 -3.6129211e-002
  7.7456474e-002 -3.0374160e-002
  8.4583483e-002 -2.2017222e-002
  9.0237083e-002 -1.6498259e-002
  9.1120018e-002 -1.7248774e-002
  8.7839794e-002 -2.2710338e-002
  8.3915290e-002 -2.7391559e-002
  8.2695804e-002 -2.6120558e-002
  8.4804641e-002 -1.8168401e-002
  8.8116805e-002 -8.1179227e-003
  8.9972612e-002 -2.1184588e-003
  8.9798428e-002 -2.9463573e-003
  8.9461510e-002 -7.8761556e-003
  9.1069241e-002 -1.1195003e-002
  9.4413723e-002 -9.2908836e-003
  9.6403451e-002 -4.0400874e-003
  9.3414437e-002 -1.3555895e-003
  8.4820537e-002 -5.8177323e-003
  7.4495784e-002 -1.5858676e-002
  6.8548803e-002 -2.3892206e-002
  7.0710022e-002 -2.1784357e-002
  7.8989218e-002 -7.5472799e-003
  8.6690548e-002  1.2400984e-002
  8.7493130e-002  2.7791379e-002
  8.0825117e-002  3.2676721e-002
  7.3132617e-002  3.0679598e-002
  7.3554249e-002  3.2572068e-002
  8.6943927e-002  4.7503210e-002
  1.0961713e-001  7.4637002e-002
  1.3141705e-001  1.0220244e-001
  1.4278132e-001  1.1543656e-001
  1.4137894e-001  1.0763902e-001
  1.3308372e-001  8.5627271e-002
  1.2644916e-001  6.4893452e-002
  1.2510528e-001  5.7779214e-002
  1.2446979e-001  6.4002233e-002
  1.1578390e-001  7.1325031e-002
  9.4306942e-002  6.6110461e-002
  6.4767414e-002  4.5303398e-002
  3.8981036e-002  1.9709477e-002
  2.6947544e-002  5.2667572e-003
  2.8645591e-002  9.2399233e-003
  3.3835791e-002  2.3210221e-002
  3.0801548e-002  2.9804607e-002
  1.7206075e-002  1.8573278e-002
  3.3761881e-003 -2.4632420e-003
  3.7471708e-003 -1.1207535e-002
  2.2332632e-002  9.0882747e-003
  4.4826604e-002  5.0289113e-002
  4.6875017e-002  7.8108556e-002
  1.5875885e-002  5.5746351e-002
 -2.8924153e-002 -2.0885860e-002
 -3.6006311e-002 -1.0274461e-001
  5.2420328e-002 -1.0315703e-001
  2.6018122e-001  5.2730326e-002
  5.4812015e-001  3.7217126e-001
  8.1900541e-001  7.7023826e-001
  9.5945415e-001  1.0983690e+000
  8.9799283e-001  1.2155037e+000
  6.4558363e-001  1.0625092e+000
  2.9339459e-001  6.9564858e-001
 -3.2193203e-002  2.5830974e-001
 -2.3170691e-001 -9.2626460e-002
 -2.7618516e-001 -2.6245405e-001
 -2.0917562e-001 -2.5365228e-001
 -1.1015522e-001 -1.4465991e-001
 -4.5147168e-002 -3.1836328e-002
 -3.5004132e-002  2.6182412e-002
 -5.7241078e-002  2.9169141e-002
 -7.3899044e-002  1.5435469e-002
 -6.2744530e-002  2.2337556e-002
 -3.0441647e-002  5.7575924e-002
 -2.1062214e-003  9.8960091e-002
  1.2154048e-003  1.1747798e-001
 -2.1203911e-002  1.0254240e-001
 -5.0970202e-002  6.9728953e-002
 -6.6166984e-002  4.7046889e-002
 -5.7783797e-002  5.2757008e-002
 -3.4654931e-002  8.2561338e-002
 -1.4416818e-002  1.1527641e-001
 -9.0078119e-003  1.3080225e-001
 -1.6375902e-002  1.2535005e-001
 -2.4095713e-002  1.1238062e-001
 -2.0836675e-002  1.0982196e-001
 -5.8067593e-003  1.2490008e-001
  1.1308248e-002  1.4896580e-001
  1.9054561e-002  1.6568414e-001
  1.4055477e-002  1.6522036e-001
  3.8284732e-003  1.5251217e-001
  6.6443744e-004  1.4313170e-001
  1.1800084e-002  1.5053852e-001
  3.3937497e-002  1.7528090e-001
  5.6201438e-002  2.0475697e-001
  6.8942330e-002  2.2334872e-001
  7.1190678e-002  2.2495941e-001
  7.0966297e-002  2.1759079e-001
  7.8556389e-002  2.1686534e-001
  9.8244981e-002  2.3399297e-001
  1.2526776e-001  2.6754354e-001
  1.4978325e-001  3.0492931e-001
  1.6441639e-001  3.3203471e-001
  1.6933119e-001  3.4308427e-001
  1.7103119e-001  3.4341790e-001
  1.7624043e-001  3.4374612e-001
  1.8601217e-001  3.5110117e-001
  1.9475371e-001  3.6375210e-001
  1.9465804e-001  3.7355989e-001
  1.8176936e-001  3.7312196e-001
  1.5887626e-001  3.6157438e-001
  1.3311570e-001  3.4450254e-001
  1.1052837e-001  3.2862586e-001
  9.1878406e-002  3.1603240e-001
  7.2860405e-002  3.0272451e-001
  4.8121926e-002  2.8236075e-001
  1.5840993e-002  2.5191529e-001
 -2.0745356e-002  2.1452143e-001
 -5.5604117e-002  1.7744736e-001
 -8.3894212e-002  1.4715862e-001
 -1.0445721e-001  1.2556024e-001
 -1.1932232e-001  1.1010483e-001
 -1.3123490e-001  9.7063566e-002
 -1.4143942e-001  8.4876059e-002
 -1.4954938e-001  7.4701723e-002
 -1.5504133e-001  6.8213768e-002
 -1.5870849e-001  6.4969353e-002
 -1.6258088e-001  6.2011896e-002
 -1.6836287e-001  5.6124005e-002
 -1.7589955e-001  4.6731204e-002
 -1.8312652e-001  3.6752809e-002
 -1.8751948e-001  3.0605455e-002
 -1.8783831e-001  3.0923834e-002
 -1.8474412e-001  3.6697824e-002
 -1.7999159e-001  4.4146646e-002
 -1.7505661e-001  4.9505526e-002
 -1.7063923e-001  5.1194262e-002
 -1.6724499e-001  4.9843451e-002
 -1.6600682e-001  4.6611825e-002
 -1.6843450e-001  4.1815727e-002
 -1.7496133e-001  3.5273151e-002
 -1.8357039e-001  2.7883807e-002
 -1.9013261e-001  2.2387336e-002
 -1.9079121e-001  2.1980535e-002
 -1.8492020e-001  2.7422050e-002
 -1.7618883e-001  3.5275004e-002
 -1.7052463e-001  3.9340631e-002
 -1.7199364e-001  3.4968597e-002
 -1.7969686e-001  2.2972234e-002
 -1.8820738e-001  9.7751763e-003
 -1.9153740e-001  3.0229592e-003
 -1.8771788e-001  5.7278209e-003
 -1.8047070e-001  1.3537253e-002
 -1.7642912e-001  1.7760610e-002
 -1.8000679e-001  1.2107869e-002
 -1.8981358e-001 -1.9867881e-003
 -1.9950570e-001 -1.5933139e-002
 -2.0264743e-001 -2.0394934e-002
 -1.9782491e-001 -1.2778747e-002
 -1.9000629e-001  2.0913751e-004
 -1.8690056e-001  7.2766786e-003
 -1.9311330e-001  1.1216368e-003
 -2.0654633e-001 -1.5716450e-002
 -2.1979066e-001 -3.2507083e-002
 -2.2548831e-001 -3.8364809e-002
 -2.2156108e-001 -3.0597100e-002
 -2.1232321e-001 -1.6751344e-002
 -2.0485942e-001 -8.7565181e-003
 -2.0362980e-001 -1.3698795e-002
 -2.0753828e-001 -2.8419959e-002
 -2.1169928e-001 -4.2257957e-002
 -2.1202680e-001 -4.5619152e-002
 -2.0887023e-001 -3.7622692e-002
 -2.0666886e-001 -2.6738281e-002
 -2.1004323e-001 -2.4016970e-002
 -2.1958865e-001 -3.4316167e-002
 -2.3090368e-001 -5.2479797e-002
 -2.3771157e-001 -6.7426840e-002
 -2.3653732e-001 -7.0630820e-002
 -2.2917505e-001 -6.2248281e-002
 -2.2116677e-001 -5.0246904e-002
 -2.1758832e-001 -4.3621782e-002
 -2.1973048e-001 -4.5645245e-002
 -2.2500454e-001 -5.2458234e-002
 -2.2984644e-001 -5.7777090e-002
 -2.3277770e-001 -5.9061446e-002
 -2.3498212e-001 -5.9515667e-002
 -2.3806655e-001 -6.4119585e-002
 -2.4155737e-001 -7.3552653e-002
 -2.4260722e-001 -8.1849725e-002
 -2.3862461e-001 -8.0557537e-002
 -2.3036116e-001 -6.6572954e-002
 -2.2243141e-001 -4.6211750e-002
 -2.1989401e-001 -3.1516633e-002
 -2.2361848e-001 -3.0911582e-002
 -2.2845961e-001 -4.1663230e-002
 -2.2632711e-001 -5.0916875e-002
 -2.1240313e-001 -4.5488937e-002
 -1.8972791e-001 -2.3095209e-002
 -1.6803796e-001  4.2945028e-003
 -1.5721398e-001  1.8500376e-002
 -1.6011182e-001  8.9817753e-003
 -1.7061471e-001 -1.8455485e-002
 -1.7872005e-001 -4.5530817e-002
 -1.7891411e-001 -5.5560420e-002
 -1.7510819e-001 -4.6844853e-002
 -1.7775016e-001 -3.4389664e-002
 -1.9492098e-001 -3.7856594e-002
 -2.2448041e-001 -6.5038196e-002
 -2.5399354e-001 -1.0431154e-001
 -2.6918759e-001 -1.3288912e-001
 -2.6464972e-001 -1.3488408e-001
 -2.4817355e-001 -1.1462632e-001
 -2.3474821e-001 -9.3651266e-002
 -2.3455334e-001 -9.2758817e-002
 -2.4480343e-001 -1.1369793e-001
 -2.5255636e-001 -1.3646105e-001
 -2.4694016e-001 -1.3652759e-001
 -2.3056269e-001 -1.0914006e-001
 -2.1896121e-001 -7.9311729e-002
 -2.2587459e-001 -8.4997992e-002
 -2.4428410e-001 -1.4173229e-001
 -2.3948586e-001 -2.1481271e-001
 -1.6445687e-001 -2.2486773e-001
  7.9178004e-003 -9.1699403e-002
  2.5554387e-001  2.0710097e-001
  5.0279323e-001  6.0175001e-001
  6.4969553e-001  9.4840997e-001
  6.2175654e-001  1.0963635e+000
  4.1228290e-001  9.6791692e-001
  9.1035413e-002  6.0344437e-001
 -2.2776032e-001  1.4331314e-001
 -4.4076839e-001 -2.4369240e-001
 -5.0288029e-001 -4.4346835e-001
 -4.4061049e-001 -4.4369714e-001
 -3.2684008e-001 -3.2147733e-001
 -2.3508658e-001 -1.8526444e-001
 -2.0184305e-001 -1.1072750e-001
 -2.1728997e-001 -1.0891426e-001
 -2.4468677e-001 -1.3976123e-001
 -2.5139513e-001 -1.5390543e-001
 -2.2974877e-001 -1.3024755e-001
 -1.9634582e-001 -8.5182975e-002
 -1.7458278e-001 -5.2594891e-002
 -1.7556087e-001 -5.4085392e-002
 -1.9153050e-001 -8.3064763e-002
 -2.0449451e-001 -1.1258281e-001
 -2.0136680e-001 -1.1802346e-001
 -1.8336997e-001 -9.5702918e-002
 -1.6322237e-001 -6.3588791e-002
 -1.5366577e-001 -4.5315851e-002
 -1.5714922e-001 -5.1276740e-002
 -1.6459368e-001 -7.1559421e-002
 -1.6347923e-001 -8.5164331e-002
 -1.4820519e-001 -7.7094488e-002
 -1.2438557e-001 -4.9572773e-002
 -1.0403004e-001 -1.9174025e-002
 -9.5880051e-002 -3.1300962e-003
 -9.8712448e-002 -6.1006962e-003
 -1.0259663e-001 -1.7568754e-002
 -9.6816960e-002 -2.1089199e-002
 -7.7970473e-002 -7.4247857e-003
 -5.2053538e-002  1.8903897e-002
 -2.9197085e-002  4.4224627e-002
 -1.5619619e-002  5.7333844e-002
 -9.0905668e-003  5.8375039e-002
 -1.3150376e-003  5.8110919e-002
  1.4892003e-002  6.8875429e-002
  3.9749459e-002  9.4568714e-002
  6.6280595e-002  1.2756862e-001
  8.5795976e-002  1.5477807e-001
  9.4633382e-002  1.6775330e-001
  9.6800933e-002  1.6885444e-001
  1.0049631e-001  1.6881417e-001
  1.1121394e-001  1.7780226e-001
  1.2693425e-001  1.9717929e-001
  1.3902317e-001  2.1819536e-001
  1.3822912e-001  2.2844737e-001
  1.2117525e-001  2.2086930e-001
  9.2672830e-002  1.9845497e-001
  6.2314458e-002  1.7141750e-001
  3.7926854e-002  1.4925560e-001
  2.0808161e-002  1.3408796e-001
  5.8998262e-003  1.2007219e-001
 -1.3576744e-002  9.9056959e-002
 -4.0689490e-002  6.7757855e-002
 -7.2593771e-002  3.0826635e-002
 -1.0265220e-001 -2.2652761e-003
 -1.2496506e-001 -2.3917670e-002
 -1.3772911e-001 -3.3391059e-002
 -1.4328812e-001 -3.6483723e-002
 -1.4548955e-001 -4.0572321e-002
 -1.4678206e-001 -4.9048433e-002
 -1.4746574e-001 -5.9550825e-002
 -1.4718137e-001 -6.6998099e-002
 -1.4679318e-001 -6.8661894e-002
 -1.4860214e-001 -6.6982866e-002
 -1.5449938e-001 -6.7800330e-002
 -1.6363043e-001 -7.5420226e-002
 -1.7190543e-001 -8.8590150e-002
 -1.7430647e-001 -1.0074368e-001
 -1.6846893e-001 -1.0453796e-001
 -1.5685177e-001 -9.7375129e-002
 -1.4553250e-001 -8.3624517e-002
 -1.4030738e-001 -7.1836500e-002
 -1.4279263e-001 -6.8885225e-002
 -1.4954942e-001 -7.5367146e-002
 -1.5478671e-001 -8.5488158e-002
 -1.5467891e-001 -9.1455810e-002
 -1.4997066e-001 -8.8990915e-002
 -1.4491935e-001 -7.9962129e-002
 -1.4347616e-001 -7.0402462e-002
 -1.4579824e-001 -6.5697966e-002
 -1.4800019e-001 -6.6788070e-002
 -1.4544073e-001 -7.0179214e-002
 -1.3685125e-001 -7.1406988e-002
 -1.2603343e-001 -6.9058185e-002
 -1.1943480e-001 -6.5979425e-002
 -1.2139906e-001 -6.6852520e-002
 -1.3060089e-001 -7.4075829e-002
 -1.4057827e-001 -8.5422923e-002
 -1.4416987e-001 -9.5435250e-002
 -1.3860849e-001 -9.9464662e-002
 -1.2745734e-001 -9.7183099e-002
 -1.1793576e-001 -9.2708755e-002
 -1.1571347e-001 -9.1268059e-002
 -1.2111346e-001 -9.5060387e-002
 -1.2951616e-001 -1.0163973e-001
 -1.3538810e-001 -1.0606434e-001
 -1.3653905e-001 -1.0502560e-001
 -1.3517049e-001 -9.9565061e-002
 -1.3502383e-001 -9.4144342e-002
 -1.3723181e-001 -9.2825682e-002
 -1.3873067e-001 -9.5898418e-002
 -1.3490310e-001 -9.9808144e-002
 -1.2440456e-001 -1.0053253e-001
 -1.1188695e-001 -9.7477681e-002
 -1.0565493e-001 -9.4339516e-002
 -1.1138228e-001 -9.5860516e-002
