 -2.5994904e-002 -4.8998414e-002
 -2.4470857e-002 -5.7848862e-002
 -2.2637756e-002 -6.9715648e-002
 -2.0796625e-002 -7.9669253e-002
 -1.9102181e-002 -8.3651853e-002
 -1.8051114e-002 -8.0797220e-002
 -1.8359874e-002 -7.3773620e-002
 -2.0585887e-002 -6.7121457e-002
 -2.4412225e-002 -6.4705424e-002
 -2.8628983e-002 -6.7661050e-002
 -3.1651002e-002 -7.3979312e-002
 -3.2488028e-002 -7.9844494e-002
 -3.1359694e-002 -8.1999049e-002
 -2.9579944e-002 -7.9887904e-002
 -2.8806671e-002 -7.6348178e-002
 -3.0111379e-002 -7.6110911e-002
 -3.3391844e-002 -8.2723448e-002
 -3.7516490e-002 -9.5618125e-002
 -4.0831392e-002 -1.0935508e-001
 -4.1854833e-002 -1.1610212e-001
 -3.9857474e-002 -1.1029902e-001
 -3.5207766e-002 -9.2699308e-002
 -2.9181530e-002 -7.0809956e-002
 -2.3508355e-002 -5.4903831e-002
 -1.9722999e-002 -5.1936963e-002
 -1.8459104e-002 -6.1201931e-002
 -1.9211695e-002 -7.5061969e-002
 -2.0691506e-002 -8.4365563e-002
 -2.1746020e-002 -8.4861469e-002
 -2.2066114e-002 -7.9758221e-002
 -2.2213751e-002 -7.6635686e-002
 -2.2901933e-002 -8.0865554e-002
 -2.4145868e-002 -9.0857568e-002
 -2.5113830e-002 -9.9046592e-002
 -2.4943400e-002 -9.8126157e-002
 -2.3815308e-002 -8.7532517e-002
 -2.3462656e-002 -7.4672373e-002
 -2.6033148e-002 -6.9222957e-002
 -3.2115210e-002 -7.4618164e-002
 -3.9323649e-002 -8.3623245e-002
 -4.2956395e-002 -8.2350138e-002
 -3.8870142e-002 -6.0465665e-002
 -2.6457805e-002 -1.9978759e-002
 -9.8068286e-003  2.4435040e-002
  4.3934995e-003  5.4840174e-002
  1.1070099e-002  6.2483030e-002
  1.0049481e-002  5.3755237e-002
  6.1168878e-003  4.4590392e-002
  5.3808462e-003  4.7280950e-002
  1.0579409e-002  5.9731284e-002
  1.8854142e-002  6.6236211e-002
  2.3610243e-002  4.9876847e-002
  1.9317729e-002  7.3498990e-003
  5.4447422e-003 -4.5824125e-002
 -1.3215239e-002 -8.4859060e-002
 -3.0076058e-002 -9.3449060e-002
 -4.1129862e-002 -7.6261307e-002
 -4.6492487e-002 -5.5459043e-002
 -4.8057616e-002 -5.3205205e-002
 -4.5927045e-002 -7.3226789e-002
 -3.7458997e-002 -9.6942969e-002
 -2.0918709e-002 -9.8875501e-002
 -8.0219148e-004 -7.0488693e-002
  1.0573367e-002 -3.3167151e-002
 -7.5637594e-004 -2.6960331e-002
 -3.8558717e-002 -7.9541459e-002
 -8.6907817e-002 -1.7667696e-001
 -1.1212288e-001 -2.5802430e-001
 -7.9181652e-002 -2.4695381e-001
  2.4941122e-002 -9.9098106e-002
  1.7515004e-001  1.6095080e-001
  3.1202042e-001  4.4121587e-001
  3.6723319e-001  6.2528486e-001
  2.9866560e-001  6.3320264e-001
  1.1538417e-001  4.6397486e-001
 -1.2270211e-001  1.9454192e-001
 -3.3187767e-001 -6.3588208e-002
 -4.4380600e-001 -2.2268535e-001
 -4.3553776e-001 -2.5766917e-001
 -3.3465870e-001 -2.0542684e-001
 -1.9887408e-001 -1.3042035e-001
 -8.3868847e-002 -8.2267086e-002
 -1.8279561e-002 -7.2248785e-002
  1.8168039e-003 -7.9436526e-002
 -2.3425935e-004 -7.6344364e-002
 -1.7491897e-003 -5.2672720e-002
  6.0201119e-003 -2.0838170e-002
  1.7506141e-002 -2.6630072e-003
  2.2701709e-002 -1.0072340e-002
  1.7553680e-002 -3.5490115e-002
  7.2907721e-003 -5.8332533e-002
  1.6655688e-003 -6.0935791e-002
  6.9137557e-003 -4.1094610e-002
  2.1366268e-002 -1.2059815e-002
  3.7445166e-002  8.6534904e-003
  4.7860870e-002  1.2192124e-002
  5.0717904e-002  3.2238487e-003
  4.9814955e-002 -5.8469944e-003
  5.0862084e-002 -5.5095887e-003
  5.6874614e-002  4.0604620e-003
  6.6547570e-002  1.4872646e-002
  7.6181703e-002  1.8991242e-002
  8.2984369e-002  1.5382756e-002
  8.6887604e-002  1.0281486e-002
  8.9455851e-002  1.1337503e-002
  9.1675064e-002  2.0976828e-002
  9.2868044e-002  3.4509895e-002
  9.1889971e-002  4.4335876e-002
  8.9344256e-002  4.6389143e-002
  8.8563607e-002  4.3411046e-002
  9.4075822e-002  4.2424802e-002
  1.0841073e-001  4.8804346e-002
  1.2982343e-001  6.1774320e-002
  1.5294333e-001  7.5128094e-002
  1.7214082e-001  8.2264265e-002
  1.8499695e-001  8.1434984e-002
  1.9349810e-001  7.7023923e-002
  2.0197447e-001  7.6028230e-002
  2.1371168e-001  8.2724225e-002
  2.2861190e-001  9.5761238e-002
  2.4377847e-001  1.0962908e-001
  2.5609198e-001  1.1903661e-001
  2.6456278e-001  1.2241914e-001
  2.7042662e-001  1.2205387e-001
  2.7507903e-001  1.2124015e-001
  2.7800776e-001  1.2122874e-001
  2.7666195e-001  1.2060543e-001
  2.6858263e-001  1.1738927e-001
  2.5394366e-001  1.1165341e-001
  2.3627256e-001  1.0615938e-001
  2.2018072e-001  1.0421060e-001
  2.0787658e-001  1.0654924e-001
  1.9708718e-001  1.0997764e-001
  1.8229346e-001  1.0902102e-001
  1.5882087e-001  9.9556816e-002
  1.2672531e-001  8.1586595e-002
  9.1612281e-002  5.9224230e-002
  6.1645182e-002  3.8112020e-002
  4.2612028e-002  2.2203706e-002
  3.4632671e-002  1.2226999e-002
  3.2410320e-002  6.3763859e-003
  2.8897740e-002  2.2150724e-003
  1.9664290e-002 -2.0858941e-003
  5.1359485e-003 -7.6444538e-003
 -1.0545067e-002 -1.5345595e-002
 -2.2604295e-002 -2.5606779e-002
 -2.8473744e-002 -3.7359638e-002
 -2.8646008e-002 -4.7358468e-002
 -2.5595600e-002 -5.1177868e-002
 -2.2110125e-002 -4.5983474e-002
 -2.0247317e-002 -3.3219845e-002
 -2.1121976e-002 -1.8858192e-002
 -2.5017344e-002 -1.0216044e-002
 -3.1128793e-002 -1.1137045e-002
 -3.7270154e-002 -1.8976314e-002
 -4.0268660e-002 -2.5966325e-002
 -3.7534767e-002 -2.4416490e-002
 -2.9209897e-002 -1.2270769e-002
 -1.8961932e-002  5.1809276e-003
 -1.2492101e-002  1.8782010e-002
 -1.4130414e-002  2.1902423e-002
 -2.3579477e-002  1.5214358e-002
 -3.5313288e-002  6.2171396e-003
 -4.1538905e-002  3.8851163e-003
 -3.7154603e-002  1.2320585e-002
 -2.3246997e-002  2.7991910e-002
 -6.7521454e-003  4.2468447e-002
  3.8379102e-003  4.8342351e-002
  3.8481547e-003  4.4035980e-002
 -4.6680288e-003  3.4321681e-002
 -1.4559196e-002  2.6358427e-002
 -1.8346220e-002  2.4585766e-002
 -1.3373991e-002  2.8242274e-002
 -3.3061345e-003  3.3020668e-002
  4.6410295e-003  3.4939662e-002
  4.7415483e-003  3.3181395e-002
 -3.4514087e-003  2.9876611e-002
 -1.4983922e-002  2.7532629e-002
 -2.2900288e-002  2.6629297e-002
 -2.2910656e-002  2.5493958e-002
 -1.6053959e-002  2.2386226e-002
 -7.9082747e-003  1.7642991e-002
 -4.9143787e-003  1.3895601e-002
 -1.0468066e-002  1.3837378e-002
 -2.3138748e-002  1.7439362e-002
 -3.7743989e-002  2.1267655e-002
 -4.8442433e-002  2.0687141e-002
 -5.1808837e-002  1.3283897e-002
 -4.8199643e-002  1.0733796e-003
 -4.0868748e-002 -1.0182413e-002
 -3.3605204e-002 -1.4398787e-002
 -2.8541189e-002 -8.9481381e-003
 -2.5348758e-002  3.8930119e-003
 -2.2133321e-002  1.8315945e-002
 -1.7306537e-002  2.8243200e-002
 -1.1219461e-002  3.0146350e-002
 -6.3594899e-003  2.4134375e-002
 -6.0222663e-003  1.3192363e-002
 -1.2174181e-002  1.4888444e-003
 -2.3739496e-002 -7.1601562e-003
 -3.6841711e-002 -1.0459939e-002
 -4.6620786e-002 -8.3563276e-003
 -4.9707572e-002 -3.1891573e-003
 -4.5853558e-002  1.2426524e-003
 -3.7705050e-002  1.7154225e-003
 -2.8943208e-002 -2.1197659e-003
 -2.2022527e-002 -6.8443886e-003
 -1.7312417e-002 -7.1532556e-003
 -1.3878870e-002  1.4131380e-004
 -1.1171108e-002  1.2736460e-002
 -9.9577033e-003  2.3005599e-002
 -1.1732316e-002  2.2520469e-002
 -1.7032911e-002  8.3421693e-003
 -2.4298446e-002 -1.3629369e-002
 -3.0210405e-002 -3.1187382e-002
 -3.1720070e-002 -3.3398138e-002
 -2.8078485e-002 -1.8156963e-002
 -2.1279684e-002  5.8062048e-003
 -1.4428837e-002  2.4430643e-002
 -9.4238098e-003  2.7717211e-002
 -5.9873119e-003  1.6319641e-002
 -2.7794592e-003  5.3141800e-004
  3.5065273e-004 -7.5959173e-003
  1.2381833e-003 -3.1044009e-003
 -3.1281273e-003  8.9582909e-003
 -1.3547158e-002  1.8445663e-002
 -2.6301458e-002  1.9003886e-002
 -3.4582982e-002  1.3410912e-002
 -3.2913949e-002  1.1256472e-002
 -2.1558911e-002  2.0697608e-002
 -7.0121411e-003  4.1230653e-002
  2.5737675e-003  6.3705440e-002
  4.0229300e-003  7.7699279e-002
  2.6050716e-003  8.0288516e-002
  8.5814025e-003  7.8395835e-002
  2.8697073e-002  8.2359913e-002
  5.8651687e-002  9.5663450e-002
  8.3259118e-002  1.0973339e-001
  8.5553550e-002  1.0919015e-001
  5.9255671e-002  8.4297024e-002
  1.5165810e-002  4.0631665e-002
 -2.4069699e-002 -2.6903914e-003
 -3.8395200e-002 -2.6282013e-002
 -2.4174259e-002 -2.5591773e-002
  3.3363049e-003 -1.5104997e-002
  2.1259403e-002 -1.7080938e-002
  1.6727605e-002 -4.2383534e-002
 -2.8978271e-003 -7.9038539e-002
 -1.5661406e-002 -9.9428730e-002
 -3.5654210e-003 -8.3170188e-002
  2.9879795e-002 -3.8678565e-002
  5.7823941e-002 -4.5479524e-003
  4.8371536e-002 -2.4939516e-002
 -8.1716264e-003 -1.1305924e-001
 -8.3181110e-002 -2.2895757e-001
 -1.1957155e-001 -2.9178461e-001
 -6.5607499e-002 -2.2455622e-001
  8.7463607e-002 -5.9357108e-003
  2.8917118e-001  3.0467748e-001
  4.4883138e-001  5.8831135e-001
  4.8176181e-001  7.2489338e-001
  3.5625060e-001  6.5580989e-001
  1.1328535e-001  4.1382758e-001
 -1.5339276e-001  1.0316530e-001
 -3.4504704e-001 -1.5686586e-001
 -4.0557074e-001 -2.9058306e-001
 -3.4266502e-001 -2.9397084e-001
 -2.1343926e-001 -2.2041445e-001
 -8.6911365e-002 -1.3890436e-001
 -7.8912427e-003 -9.3787082e-002
  1.7906017e-002 -8.9159049e-002
  1.3482291e-002 -1.0162658e-001
  6.9062939e-003 -1.0638896e-001
  1.2073012e-002 -9.6087136e-002
  2.5036468e-002 -8.1227840e-002
  3.4090846e-002 -7.6326176e-002
  3.3043332e-002 -8.5543426e-002
  2.6819428e-002 -9.9482550e-002
  2.6491722e-002 -1.0417526e-001
  3.9389884e-002 -9.3408846e-002
  6.2701695e-002 -7.3917051e-002
  8.5380701e-002 -5.9697044e-002
  9.6248307e-002 -6.0667668e-002
  9.1516274e-002 -7.5148700e-002
  7.6414617e-002 -9.1746568e-002
  6.0628806e-002 -9.8496786e-002
  5.1731757e-002 -9.1582812e-002
  5.1499450e-002 -7.7099922e-002
  5.6982603e-002 -6.5133700e-002
  6.4366748e-002 -6.1612730e-002
  7.1916997e-002 -6.4408638e-002
  8.0035408e-002 -6.6106289e-002
  8.9322433e-002 -6.0541128e-002
  9.9145131e-002 -4.7438165e-002
  1.0801517e-001 -3.1879148e-002
  1.1541832e-001 -1.9710193e-002
  1.2261911e-001 -1.3350688e-002
  1.3156282e-001 -1.1156355e-002
  1.4266379e-001 -1.0182225e-002
  1.5376578e-001 -9.2560998e-003
  1.6147675e-001 -9.1361708e-003
  1.6429001e-001 -1.0012562e-002
  1.6452364e-001 -9.1196066e-003
  1.6724534e-001 -1.5145982e-003
  1.7655534e-001  1.6037217e-002
  1.9218148e-001  4.1125463e-002
  2.0931176e-001  6.5642969e-002
  2.2216909e-001  8.0490654e-002
  2.2857557e-001  8.1901790e-002
  2.3186758e-001  7.4515209e-002
  2.3821953e-001  6.8411967e-002
  2.5136558e-001  7.1952400e-002
  2.6892451e-001  8.5827097e-002
  2.8332443e-001  1.0272969e-001
  2.8714047e-001  1.1308862e-001
  2.7853772e-001  1.1232166e-001
  2.6246102e-001  1.0400001e-001
  2.4656268e-001  9.6601138e-002
  2.3475631e-001  9.6267787e-002
  2.2371175e-001  1.0155416e-001
  2.0523059e-001  1.0409051e-001
  1.7319278e-001  9.4856002e-002
  1.2958704e-001  7.1112383e-002
  8.4971346e-002  3.8845982e-002
  5.2231119e-002  8.7127686e-003
  3.7972956e-002 -1.1137569e-002
  3.8064713e-002 -2.0015241e-002
  4.0379360e-002 -2.4093948e-002
  3.3290743e-002 -3.1038522e-002
  1.3786137e-002 -4.4245273e-002
 -1.0416652e-002 -6.0958727e-002
 -2.6340261e-002 -7.5143683e-002
 -2.4842183e-002 -8.2272769e-002
 -7.0836661e-003 -8.2215807e-002
  1.6085326e-002 -7.8255388e-002
  3.0955513e-002 -7.3792536e-002
  2.9075414e-002 -6.9957524e-002
  1.1479971e-002 -6.5957487e-002
 -1.3286601e-002 -6.1509241e-002
 -3.5174060e-002 -5.8550104e-002
 -4.8317972e-002 -6.0261722e-002
 -5.2786866e-002 -6.7807861e-002
 -5.2299802e-002 -7.7958541e-002
 -5.0586173e-002 -8.3966387e-002
 -4.9196306e-002 -7.9823629e-002
 -4.7776292e-002 -6.4720864e-002
 -4.5899526e-002 -4.4371309e-002
 -4.4092671e-002 -2.7623546e-002
 -4.3270269e-002 -2.0737107e-002
 -4.3335960e-002 -2.3451179e-002
 -4.2458129e-002 -2.9621080e-002
 -3.8216350e-002 -3.1887212e-002
 -2.9779471e-002 -2.6872620e-002
 -1.9296374e-002 -1.7105927e-002
 -1.1036578e-002 -8.5416610e-003
 -8.8225525e-003 -5.9305229e-003
 -1.3403507e-002 -9.6596723e-003
 -2.1875784e-002 -1.6141079e-002
 -2.9373379e-002 -2.0925377e-002
 -3.2244240e-002 -2.1815486e-002
 -3.0169428e-002 -1.9495261e-002
 -2.5938250e-002 -1.5846142e-002
 -2.3184149e-002 -1.1815881e-002
 -2.3834821e-002 -7.0406443e-003
 -2.7040797e-002 -1.4268394e-003
 -3.0174971e-002  3.1763092e-003
 -3.0930731e-002  3.2290959e-003
 -2.9087462e-002 -3.9506859e-003
 -2.6657594e-002 -1.7381829e-002
 -2.6401833e-002 -3.1954144e-002
 -2.9766741e-002 -4.1236517e-002
 -3.5706077e-002 -4.1864268e-002
 -4.1166527e-002 -3.6240895e-002
 -4.2961897e-002 -3.1149772e-002
 -3.9807426e-002 -3.3002349e-002
 -3.3396461e-002 -4.3579218e-002
 -2.7599349e-002 -5.8795394e-002
 -2.6410956e-002 -7.1709709e-002
 -3.1236397e-002 -7.7203699e-002
 -3.9547790e-002 -7.5054340e-002
 -4.6046968e-002 -6.9264847e-002
 -4.5624771e-002 -6.4614930e-002
 -3.6850708e-002 -6.3397422e-002
 -2.3486837e-002 -6.4792926e-002
 -1.2880416e-002 -6.6965773e-002
 -1.1759233e-002 -6.9297942e-002
 -2.1748164e-002 -7.2975942e-002
 -3.7806009e-002 -7.9168717e-002
 -5.1030897e-002 -8.6835672e-002
 -5.4081760e-002 -9.2494784e-002
 -4.5968244e-002 -9.2543208e-002
 -3.2862674e-002 -8.6517354e-002
 -2.4025606e-002 -7.8081810e-002
 -2.5645000e-002 -7.2735046e-002
 -3.6655309e-002 -7.3605578e-002
 -4.9531644e-002 -7.8712863e-002
 -5.5788459e-002 -8.2219270e-002
 -5.1862076e-002 -7.8824274e-002
 -4.1408610e-002 -6.7986461e-002
 -3.2149451e-002 -5.4500557e-002
 -2.9865224e-002 -4.4842004e-002
 -3.4045899e-002 -4.2198868e-002
 -3.8635552e-002 -4.4267964e-002
 -3.7323236e-002 -4.5581625e-002
 -2.9059723e-002 -4.2472541e-002
 -1.9510238e-002 -3.6526344e-002
 -1.6717994e-002 -3.3290291e-002
 -2.4510428e-002 -3.7205377e-002
 -3.8706338e-002 -4.6921660e-002
 -4.9458381e-002 -5.5157900e-002
 -4.8473866e-002 -5.3764790e-002
 -3.5612110e-002 -4.0222640e-002
 -1.9759445e-002 -2.0332614e-002
 -1.2748523e-002 -4.5225466e-003
 -2.0737347e-002 -4.5076613e-004
 -3.9296813e-002 -7.4196991e-003
 -5.6137303e-002 -1.7018742e-002
 -5.9775343e-002 -1.9664192e-002
 -4.7711455e-002 -1.1904782e-002
 -2.8454353e-002  1.1048692e-003
 -1.5705270e-002  1.0002223e-002
 -1.9100203e-002  8.7331780e-003
 -3.8008969e-002 -6.6402505e-004
 -6.2612779e-002 -9.9484252e-003
 -8.1063292e-002 -1.1453332e-002
 -8.7003434e-002 -4.1367199e-003
 -8.2334369e-002  5.9716846e-003
 -7.3857815e-002  1.1315026e-002
 -6.7207784e-002  9.5258359e-003
 -6.3384756e-002  5.5527402e-003
 -5.9758633e-002  7.4152676e-003
 -5.4466242e-002  1.9042804e-002
 -4.9452045e-002  3.6535699e-002
 -4.9400005e-002  5.1160096e-002
 -5.7334329e-002  5.6883122e-002
 -7.1130698e-002  5.5955111e-002
 -8.4119363e-002  5.7599080e-002
 -8.9688365e-002  7.0334556e-002
 -8.6161518e-002  9.4357625e-002
 -7.7735787e-002  1.2045693e-001
 -7.0557527e-002  1.3699630e-001
 -6.7286035e-002  1.3952917e-001
 -6.4940442e-002  1.3477818e-001
 -5.8277360e-002  1.3500679e-001
 -4.5919307e-002  1.4679099e-001
 -3.3712026e-002  1.6351549e-001
 -3.1543608e-002  1.6869707e-001
 -4.5475364e-002  1.4870383e-001
 -7.1634561e-002  1.0518811e-001
 -9.7530445e-002  5.6613617e-002
 -1.1091324e-001  2.6351710e-002
 -1.0976130e-001  2.5440489e-002
 -1.0484056e-001  4.3832611e-002
 -1.1158744e-001  5.7864161e-002
 -1.3662091e-001  4.9422932e-002
 -1.6979776e-001  2.1770805e-002
 -1.8974206e-001 -1.8003081e-003
 -1.8050023e-001  2.4900383e-003
 -1.4742479e-001  3.5363375e-002
 -1.1841039e-001  6.6880389e-002
 -1.2603600e-001  5.4904319e-002
 -1.8073551e-001 -2.0000062e-002
 -2.5425226e-001 -1.2780607e-001
 -2.8853957e-001 -1.9342013e-001
 -2.2918846e-001 -1.3600941e-001
 -6.4410436e-002  7.7984086e-002
  1.5618695e-001  4.0207963e-001
  3.3857279e-001  7.2156136e-001
  3.9069534e-001  9.0744589e-001
  2.7267991e-001  8.8285656e-001
  2.1136697e-002  6.6302033e-001
 -2.6771549e-001  3.4540996e-001
 -4.8647655e-001  5.6824618e-002
 -5.6879480e-001 -1.1056503e-001
 -5.1613849e-001 -1.3763134e-001
 -3.8672350e-001 -7.2691487e-002
 -2.5679778e-001  8.9136040e-003
 -1.7941628e-001  5.1391270e-002
 -1.6396320e-001  4.3267798e-002
 -1.8415778e-001  1.0285363e-002
 -2.0400000e-001 -1.2323232e-002
 -2.0230961e-001 -6.0854034e-003
 -1.8129395e-001  2.2423885e-002
 -1.5774364e-001  5.2483883e-002
 -1.4670185e-001  6.7410272e-002
 -1.5071334e-001  6.5523770e-002
 -1.6067264e-001  5.7522707e-002
 -1.6532526e-001  5.5192397e-002
 -1.6049313e-001  6.1810325e-002
 -1.5109197e-001  7.1373631e-002
 -1.4570153e-001  7.5539195e-002
 -1.4899966e-001  7.1437729e-002
 -1.5846357e-001  6.3648753e-002
 -1.6696094e-001  5.9663956e-002
 -1.6866864e-001  6.3363493e-002
 -1.6301123e-001  7.2349447e-002
 -1.5417314e-001  8.0822363e-002
 -1.4708234e-001  8.4987724e-002
 -1.4365301e-001  8.5956851e-002
 -1.4234472e-001  8.7811553e-002
 -1.4060019e-001  9.3048817e-002
 -1.3764529e-001  9.9886759e-002
 -1.3497011e-001  1.0397571e-001
 -1.3432678e-001  1.0301705e-001
 -1.3540492e-001  9.9992236e-002
 -1.3531498e-001  1.0164585e-001
 -1.3062693e-001  1.1304761e-001
 -1.1997388e-001  1.3266136e-001
 -1.0515781e-001  1.5216975e-001
 -8.9389364e-002  1.6188600e-001
 -7.4775995e-002  1.5766443e-001
 -6.1000814e-002  1.4415039e-001
 -4.6713946e-002  1.3164547e-001
 -3.2094756e-002  1.2892993e-001
 -2.0127309e-002  1.3734965e-001
 -1.4884169e-002  1.5042415e-001
 -1.7892101e-002  1.5897863e-001
 -2.5610069e-002  1.5769955e-001
 -3.0568585e-002  1.4824812e-001
 -2.6143083e-002  1.3702516e-001
 -1.1578286e-002  1.3005551e-001
  6.5220792e-003  1.2905900e-001
  1.7895017e-002  1.3157862e-001
  1.5077889e-002  1.3416524e-001
 -1.7963173e-003  1.3540584e-001
 -2.5411313e-002  1.3607173e-001
 -4.6414141e-002  1.3672325e-001
 -5.9851460e-002  1.3533335e-001
 -6.8148917e-002  1.2766815e-001
 -7.8587778e-002  1.1047685e-001
 -9.7702815e-002  8.4697169e-002
 -1.2654152e-001  5.5678589e-002
 -1.6045459e-001  2.9652392e-002
 -1.9276576e-001  9.2783484e-003
 -2.1925334e-001 -8.0339814e-003
 -2.3989771e-001 -2.7345571e-002
 -2.5696504e-001 -5.1076434e-002
 -2.7157279e-001 -7.5901888e-002
 -2.8195425e-001 -9.4541766e-002
 -2.8516395e-001 -1.0142058e-001
 -2.8051599e-001 -9.7648408e-002
 -2.7162967e-001 -9.1090009e-002
 -2.6487852e-001 -9.0956492e-002
 -2.6505498e-001 -1.0085354e-001
 -2.7186439e-001 -1.1595618e-001
 -2.8000322e-001 -1.2671243e-001
 -2.8332165e-001 -1.2655602e-001
 -2.7981133e-001 -1.1759938e-001
 -2.7345573e-001 -1.0959295e-001
 -2.7120111e-001 -1.1256431e-001
 -2.7723580e-001 -1.2870224e-001
 -2.8917392e-001 -1.4995595e-001
 -2.9926778e-001 -1.6351501e-001
 -3.0013415e-001 -1.6134615e-001
 -2.9045911e-001 -1.4644537e-001
 -2.7635182e-001 -1.3105352e-001
 -2.6692180e-001 -1.2782775e-001
 -2.6737293e-001 -1.4058357e-001
 -2.7495292e-001 -1.6150744e-001
 -2.8088051e-001 -1.7693915e-001
 -2.7719478e-001 -1.7725490e-001
 -2.6317644e-001 -1.6340256e-001
 -2.4625693e-001 -1.4549136e-001
 -2.3656755e-001 -1.3493913e-001
 -2.3923728e-001 -1.3622291e-001
 -2.5012791e-001 -1.4464461e-001
 -2.5843869e-001 -1.5137500e-001
 -2.5458989e-001 -1.5126634e-001
 -2.3736669e-001 -1.4698205e-001
 -2.1500354e-001 -1.4609143e-001
 -1.9919063e-001 -1.5365874e-001
 -1.9660767e-001 -1.6684042e-001
 -2.0423998e-001 -1.7608622e-001
 -2.1187215e-001 -1.7254856e-001
 -2.1016791e-001 -1.5587272e-001
 -1.9802757e-001 -1.3593052e-001
 -1.8360928e-001 -1.2654827e-001
 -1.7829188e-001 -1.3553751e-001
 -1.8780291e-001 -1.5836867e-001
 -2.0740352e-001 -1.8056877e-001
 -2.2464116e-001 -1.8735944e-001
 -2.2784044e-001 -1.7380507e-001
 -2.1420580e-001 -1.4836443e-001
 -1.9168036e-001 -1.2725989e-001
 -1.7328666e-001 -1.2376100e-001
 -1.6795679e-001 -1.3975807e-001
 -1.7449510e-001 -1.6519018e-001
 -1.8281119e-001 -1.8522855e-001
 -1.8163178e-001 -1.8977296e-001
 -1.6675634e-001 -1.7900110e-001
 -1.4427958e-001 -1.6180078e-001
 -1.2645725e-001 -1.4904587e-001
 -1.2342039e-001 -1.4682991e-001
 -1.3632306e-001 -1.5382188e-001
 -1.5669170e-001 -1.6363001e-001
 -1.7198802e-001 -1.6967513e-001
 -1.7370169e-001 -1.6906239e-001
 -1.6221615e-001 -1.6321100e-001
 -1.4573320e-001 -1.5584793e-001
 -1.3443614e-001 -1.5061083e-001
 -1.3391928e-001 -1.4939108e-001
 -1.4230103e-001 -1.5197331e-001
 -1.5219939e-001 -1.5644554e-001
 -1.5597360e-001 -1.5995224e-001
 -1.5064145e-001 -1.5979086e-001
 -1.3923292e-001 -1.5475419e-001
 -1.2836558e-001 -1.4620646e-001
 -1.2382016e-001 -1.3781816e-001
 -1.2706979e-001 -1.3362503e-001
 -1.3484798e-001 -1.3523314e-001
 -1.4140749e-001 -1.4023621e-001
 -1.4214731e-001 -1.4344135e-001
 -1.3606039e-001 -1.4049297e-001
 -1.2604813e-001 -1.3152352e-001
 -1.1702345e-001 -1.2177820e-001
 -1.1316385e-001 -1.1825713e-001
 -1.1602624e-001 -1.2454478e-001
 -1.2405718e-001 -1.3742876e-001
 -1.3363830e-001 -1.4844857e-001
 -1.4067908e-001 -1.4939638e-001
 -1.4216111e-001 -1.3806500e-001
 -1.3698853e-001 -1.1991340e-001
 -1.2604716e-001 -1.0422673e-001
 -1.1196970e-001 -9.7614099e-002
 -9.8584761e-002 -9.9657883e-002
 -8.9862539e-002 -1.0399703e-001
 -8.8607791e-002 -1.0391014e-001
 -9.4960886e-002 -9.7749940e-002
 -1.0589920e-001 -9.0087734e-002
 -1.1616759e-001 -8.7470018e-002
 -1.2060833e-001 -9.2416478e-002
 -1.1699530e-001 -1.0067601e-001
 -1.0749413e-001 -1.0416037e-001
 -9.7583904e-002 -9.7357510e-002
 -9.2596615e-002 -8.1981867e-002
 -9.4263255e-002 -6.6091581e-002
 -9.9460445e-002 -5.8154240e-002
 -1.0221777e-001 -6.0632203e-002
 -9.7896032e-002 -6.8301913e-002
 -8.6662537e-002 -7.2658165e-002
 -7.3626435e-002 -6.8798240e-002
 -6.5386517e-002 -5.9239367e-002
 -6.5175055e-002 -5.1531906e-002
 -7.0580521e-002 -5.1752837e-002
 -7.5465032e-002 -5.9278183e-002
 -7.4863134e-002 -6.7274826e-002
 -6.9026677e-002 -6.8379782e-002
 -6.3165572e-002 -6.0860352e-002
 -6.2971906e-002 -4.9757411e-002
 -6.9270697e-002 -4.2096446e-002
 -7.6331866e-002 -4.0053337e-002
 -7.5794745e-002 -3.8245797e-002
 -6.3577285e-002 -2.7920453e-002
 -4.4251535e-002 -4.9071662e-003
 -2.8680734e-002  2.5460797e-002
 -2.6122046e-002  5.1058401e-002
 -3.6431431e-002  6.1711700e-002
 -4.8847700e-002  5.7117531e-002
 -4.9282627e-002  4.7062570e-002
 -3.1435140e-002  4.3214088e-002
 -3.0584203e-003  4.8920240e-002
  1.8056276e-002  5.5650324e-002
  1.6762462e-002  4.9857040e-002
 -7.5278683e-003  2.5085908e-002
 -3.9051666e-002 -1.0681441e-002
 -5.6509189e-002 -3.9582976e-002
 -4.9173842e-002 -4.7670273e-002
 -2.6028294e-002 -3.7141469e-002
 -9.8808563e-003 -2.5953012e-002
 -1.9566928e-002 -3.3353017e-002
 -5.3405058e-002 -6.2032362e-002
 -8.7655125e-002 -9.2201802e-002
 -9.3281166e-002 -9.5205629e-002
 -6.0038251e-002 -5.8632442e-002
 -9.2778803e-003 -3.5471985e-003
  1.6912330e-002  2.3102887e-002
 -1.3939916e-002 -1.9279473e-002
 -9.4959229e-002 -1.2788080e-001
 -1.7377349e-001 -2.4245743e-001
 -1.7912279e-001 -2.7027708e-001
 -6.6908282e-002 -1.4002451e-001
  1.4328752e-001  1.4714723e-001
  3.6723057e-001  5.0372189e-001
  4.9572315e-001  7.9256666e-001
  4.5364980e-001  8.9584812e-001
  2.4374160e-001  7.7661853e-001
 -5.2037946e-002  4.9643455e-001
 -3.1483793e-001  1.7935070e-001
 -4.4991021e-001 -5.4956131e-002
 -4.3094200e-001 -1.4874668e-001
 -3.0374743e-001 -1.2269687e-001
 -1.5135125e-001 -4.7010784e-002
 -4.4829354e-002  9.1151688e-003
 -9.9178743e-003  1.6136768e-002
 -2.5954542e-002 -1.0475247e-002
 -5.1646744e-002 -3.4744177e-002
 -5.6656092e-002 -3.2416997e-002
 -3.7934262e-002 -7.2650873e-003
 -1.3543922e-002  1.7100594e-002
 -3.1600331e-003  1.9628080e-002
 -1.1570983e-002 -6.4233157e-004
 -2.6758635e-002 -2.5021480e-002
 -3.1560477e-002 -3.1319774e-002
 -1.8065318e-002 -1.1830070e-002
  6.6116844e-003  2.1049250e-002
  2.6765635e-002  4.5116274e-002
  3.0684549e-002  4.5555389e-002
  1.9197077e-002  2.5608994e-002
  4.1101505e-003  3.0122230e-003
 -1.1808629e-003 -4.0438907e-003
  8.5412128e-003  9.7547684e-003
  2.7493223e-002  3.4185707e-002
  4.4270395e-002  5.2469848e-002
  5.0430702e-002  5.4300055e-002
  4.5794054e-002  4.2653894e-002
  3.6999677e-002  3.0106188e-002
  3.1585237e-002  2.8405459e-002
  3.2672410e-002  3.9799770e-002
  3.8258792e-002  5.6576953e-002
  4.4574709e-002  6.8156207e-002
  5.0288640e-002  6.9502525e-002
  5.7692790e-002  6.4244332e-002
  7.0151091e-002  6.0569695e-002
  8.8355252e-002  6.4030902e-002
  1.0875743e-001  7.3289780e-002
  1.2564103e-001  8.2007610e-002
  1.3525588e-001  8.4801323e-002
  1.3849651e-001  8.2082309e-002
  1.4019399e-001  7.9643181e-002
  1.4574202e-001  8.3688209e-002
  1.5743830e-001  9.5417501e-002
  1.7337553e-001  1.0976537e-001
  1.8926806e-001  1.1922677e-001
  2.0149276e-001  1.1961010e-001
  2.0925373e-001  1.1319888e-001
  2.1432463e-001  1.0688206e-001
  2.1916713e-001  1.0693102e-001
  2.2514813e-001  1.1462697e-001
  2.3187966e-001  1.2586495e-001
  2.3781357e-001  1.3471403e-001
  2.4090171e-001  1.3773486e-001
  2.3891690e-001  1.3564233e-001
  2.2959242e-001  1.3141540e-001
  2.1114187e-001  1.2686725e-001
  1.8348448e-001  1.2073844e-001
  1.4928361e-001  1.0991794e-001
  1.1369325e-001  9.2522618e-002
  8.2346779e-002  7.0052813e-002
  5.8555847e-002  4.6747400e-002
  4.1720904e-002  2.6654540e-002
  2.8287994e-002  1.1030559e-002
  1.4951791e-002 -1.7789716e-003
  1.4216809e-003 -1.3955011e-002
 -9.0125594e-003 -2.5455697e-002
 -1.2170059e-002 -3.3565956e-002
 -6.7978820e-003 -3.5230609e-002
  3.3773716e-003 -3.0303604e-002
  1.1115143e-002 -2.2870886e-002
  1.0168915e-002 -1.9052099e-002
 -6.8612928e-004 -2.2831738e-002
 -1.6742107e-002 -3.2931758e-002
 -3.0641769e-002 -4.3398518e-002
 -3.7373401e-002 -4.7734445e-002
 -3.7414239e-002 -4.3530860e-002
 -3.5979239e-002 -3.4234659e-002
 -3.8679130e-002 -2.6595757e-002
 -4.7034316e-002 -2.5673662e-002
 -5.7118856e-002 -3.1269372e-002
 -6.2409675e-002 -3.8301987e-002
 -5.8678763e-002 -4.0774687e-002
 -4.7434060e-002 -3.6541268e-002
 -3.5136389e-002 -2.9037329e-002
 -2.9187787e-002 -2.4648898e-002
 -3.2957703e-002 -2.7753240e-002
 -4.3566718e-002 -3.7107336e-002
 -5.3894123e-002 -4.6396720e-002
 -5.7301942e-002 -4.8570363e-002
 -5.1701327e-002 -4.0738235e-002
 -4.0408593e-002 -2.6217346e-002
 -2.9597614e-002 -1.2254333e-002
 -2.4252191e-002 -5.2408541e-003
 -2.5310071e-002 -6.7274329e-003
 -2.9728797e-002 -1.3048536e-002
 -3.3110064e-002 -1.8526773e-002
 -3.2690541e-002 -1.9570133e-002
 -2.8740277e-002 -1.6761209e-002
 -2.3763095e-002 -1.3667137e-002
 -2.0425811e-002 -1.3540329e-002
 -1.9768166e-002 -1.6675634e-002
 -2.0884353e-002 -2.0434796e-002
 -2.2023426e-002 -2.1762901e-002
 -2.2156727e-002 -2.0112998e-002
 -2.1704855e-002 -1.8143852e-002
 -2.2182895e-002 -1.9876499e-002
 -2.4894673e-002 -2.7407531e-002
 -2.9933085e-002 -3.8798115e-002
 -3.5878902e-002 -4.8817808e-002
 -4.0481521e-002 -5.2297508e-002
 -4.1877951e-002 -4.7565539e-002
 -3.9450245e-002 -3.7563712e-002
 -3.4193681e-002 -2.8047723e-002
 -2.8048403e-002 -2.3958202e-002
 -2.2867741e-002 -2.6504707e-002
 -1.9486963e-002 -3.2858098e-002
 -1.7372078e-002 -3.8367298e-002
 -1.4856370e-002 -3.9458787e-002
 -1.0312399e-002 -3.5520742e-002
 -3.3504447e-003 -2.8556413e-002
  4.3593550e-003 -2.1488766e-002
  9.3634084e-003 -1.6489821e-002
  7.9941276e-003 -1.4436913e-002
 -1.4105118e-003 -1.5331270e-002
 -1.6747665e-002 -1.8800347e-002
 -3.2244244e-002 -2.4020744e-002
 -4.0529015e-002 -2.9128684e-002
 -3.6291418e-002 -3.1247124e-002
 -1.9448883e-002 -2.7757609e-002
  3.9469780e-003 -1.8385435e-002
  2.4100988e-002 -6.4672810e-003
  3.2128813e-002  2.0327909e-003
  2.4613021e-002  1.8139604e-003
  5.4363227e-003 -8.1281856e-003
 -1.6314103e-002 -2.3146329e-002
 -3.1378361e-002 -3.5262255e-002
 -3.5354484e-002 -3.8167329e-002
 -3.0576151e-002 -3.1432186e-002
 -2.3843260e-002 -2.0997538e-002
 -2.1549649e-002 -1.5277784e-002
 -2.5462798e-002 -1.9346848e-002
 -3.1910887e-002 -3.1324972e-002
 -3.5023872e-002 -4.3648369e-002
 -3.1442579e-002 -4.8378667e-002
 -2.3084710e-002 -4.2853450e-002
 -1.5833864e-002 -3.1542793e-002
 -1.5006631e-002 -2.2763913e-002
 -2.0941620e-002 -2.2587665e-002
 -2.8380028e-002 -3.0578930e-002
 -3.0122238e-002 -4.0375148e-002
 -2.2647180e-002 -4.4658257e-002
 -9.3361613e-003 -4.0626491e-002
  1.2736075e-003 -3.1855280e-002
  1.4278433e-003 -2.5177255e-002
 -9.9667799e-003 -2.5153853e-002
 -2.6006596e-002 -3.0644047e-002
 -3.6182875e-002 -3.6048634e-002
 -3.3583406e-002 -3.6249500e-002
 -1.9859024e-002 -3.1164620e-002
 -4.1179067e-003 -2.5989878e-002
  3.4397244e-003 -2.6819871e-002
 -1.4108787e-003 -3.5260422e-002
 -1.4198540e-002 -4.6384968e-002
 -2.5442007e-002 -5.2103764e-002
 -2.7649915e-002 -4.7458187e-002
 -2.0546013e-002 -3.4866160e-002
 -1.0552265e-002 -2.2868795e-002
 -5.3067375e-003 -1.9942034e-002
 -7.5817647e-003 -2.8170597e-002
 -1.3410434e-002 -4.1611367e-002
 -1.5790737e-002 -5.0821146e-002
 -1.0710159e-002 -4.9855781e-002
 -6.2072623e-004 -4.0344624e-002
  7.5496702e-003 -2.9433750e-002
  8.1548010e-003 -2.3355433e-002
  1.4604819e-003 -2.2041229e-002
 -6.5493018e-003 -1.9251796e-002
 -9.1179410e-003 -8.2222682e-003
 -4.2176157e-003  1.2018779e-002
  4.2686521e-003  3.5052333e-002
  1.0634594e-002  5.1916436e-002
  1.3041625e-002  5.8295931e-002
  1.5693350e-002  5.8018733e-002
  2.4916245e-002  5.9332339e-002
  4.2121340e-002  6.6887309e-002
  6.0021887e-002  7.6256697e-002
  6.6339710e-002  7.6464988e-002
  5.3041971e-002  5.9276677e-002
  2.4098081e-002  2.7846645e-002
 -5.3628533e-003 -3.2196711e-003
 -1.9373717e-002 -1.8032110e-002
 -1.3625697e-002 -1.2560920e-002
  5.3599767e-005  3.0072047e-004
  2.0485521e-003 -4.8289932e-004
 -1.8673988e-002 -2.6396083e-002
 -5.3235892e-002 -6.6698096e-002
 -7.6792144e-002 -9.2601920e-002
 -6.7309079e-002 -7.8484606e-002
 -2.6124407e-002 -2.5798506e-002
  1.6658736e-002  2.9621406e-002
  1.9817753e-002  3.7026790e-002
 -3.7291289e-002 -3.2046092e-002
 -1.3077325e-001 -1.5339650e-001
 -1.9630150e-001 -2.5081737e-001
 -1.6409523e-001 -2.3390875e-001
 -5.9294262e-003 -5.3674004e-002
  2.3601492e-001  2.5808226e-001
  4.6042260e-001  5.9311636e-001
  5.5610357e-001  8.1670628e-001
  4.6235964e-001  8.3640725e-001
  2.0481829e-001  6.4988654e-001
 -1.1541798e-001  3.4398835e-001
 -3.7364949e-001  4.6491319e-002
 -4.8393255e-001 -1.4001956e-001
 -4.3672729e-001 -1.8380428e-001
 -2.9244315e-001 -1.2566747e-001
 -1.3921135e-001 -4.1506090e-002
 -4.2902932e-002  6.9835598e-003
 -1.9051815e-002  2.6017127e-003
 -3.8874260e-002 -3.0470501e-002
 -5.9534929e-002 -5.4638399e-002
 -5.5162288e-002 -4.8708002e-002
 -2.9162988e-002 -1.9524938e-002
 -3.7048481e-003  8.9259156e-003
  1.8129468e-003  1.6952234e-002
 -1.4045982e-002  3.7512541e-003
 -3.5443526e-002 -1.4438747e-002
 -4.3157558e-002 -1.9042434e-002
 -2.9363263e-002 -3.7131594e-003
 -2.3428852e-003  2.2116444e-002
  2.1056914e-002  4.2028692e-002
  2.8350825e-002  4.5767948e-002
  1.9449751e-002  3.6002072e-002
  4.8293475e-003  2.4480163e-002
 -3.4832476e-003  2.1859825e-002
 -5.0210846e-004  2.9747757e-002
  9.7046130e-003  4.0967566e-002
  1.9014696e-002  4.6849062e-002
  2.2419978e-002  4.4719694e-002
  2.1289289e-002  3.9414735e-002
  2.0982691e-002  3.8109215e-002
  2.5448952e-002  4.3374919e-002
  3.3836902e-002  5.0804967e-002
  4.1670594e-002  5.3199047e-002
  4.5254005e-002  4.7678225e-002
  4.5353847e-002  3.9422659e-002
  4.7006361e-002  3.8463415e-002
  5.5591533e-002  5.1770745e-002
  7.2542775e-002  7.6957385e-002
  9.4119393e-002  1.0295210e-001
  1.1394814e-001  1.1737423e-001
  1.2732725e-001  1.1529303e-001
  1.3365181e-001  1.0261853e-001
  1.3561092e-001  9.1609245e-002
  1.3624724e-001  9.1885357e-002
  1.3646229e-001  1.0373474e-001
  1.3523606e-001  1.1854905e-001
  1.3207446e-001  1.2592966e-001
  1.2907467e-001  1.2160335e-001
  1.3053407e-001  1.1037541e-001
  1.4005822e-001  1.0198856e-001
  1.5727310e-001  1.0350582e-001
  1.7705946e-001  1.1417480e-001
  1.9192421e-001  1.2648595e-001
  1.9609190e-001  1.3219368e-001
  1.8838790e-001  1.2831562e-001
  1.7208020e-001  1.1848376e-001
  1.5197677e-001  1.0895056e-001
  1.3125292e-001  1.0294386e-001
  1.1028839e-001  9.8105218e-002
  8.8040779e-002  8.8995702e-002
  6.4247307e-002  7.2383560e-002
  4.0442757e-002  5.0641312e-002
  1.9053352e-002  3.0373348e-002
  1.5466508e-003  1.7347513e-002
 -1.2663289e-002  1.1900429e-002
 -2.5327713e-002  8.7613270e-003
 -3.7346920e-002  1.6067610e-003
 -4.7507263e-002 -1.1386787e-002
 -5.3555952e-002 -2.5691555e-002
 -5.4540952e-002 -3.3849812e-002
 -5.2708722e-002 -3.1793373e-002
 -5.2709801e-002 -2.2753780e-002
 -5.8447089e-002 -1.5492686e-002
 -6.9801641e-002 -1.7912832e-002
 -8.1966669e-002 -3.0818085e-002
 -8.8459901e-002 -4.6937633e-002
 -8.5730830e-002 -5.6050842e-002
 -7.6069169e-002 -5.2621711e-002
 -6.6316695e-002 -3.9989153e-002
 -6.2796653e-002 -2.7776392e-002
 -6.6321335e-002 -2.4511873e-002
 -7.1137910e-002 -3.1032126e-002
 -6.8683192e-002 -3.9689667e-002
 -5.4085076e-002 -4.0328497e-002
 -3.0381915e-002 -2.8311461e-002
 -7.5193928e-003 -8.5668559e-003
  3.8360007e-003  7.7062717e-003
 -7.9815687e-004  1.0753134e-002
 -1.6725745e-002 -5.9609709e-004
 -3.3401369e-002 -1.8225434e-002
 -4.1265424e-002 -3.0816898e-002
 -3.7761735e-002 -3.1871420e-002
 -2.8147034e-002 -2.3931946e-002
 -2.0823522e-002 -1.5766176e-002
 -2.1009669e-002 -1.5212949e-002
 -2.7152667e-002 -2.3045514e-002
 -3.2771401e-002 -3.2687587e-002
 -3.1928548e-002 -3.5779397e-002
 -2.3866012e-002 -2.8966488e-002
 -1.3517836e-002 -1.6735207e-002
 -7.4120121e-003 -8.0470520e-003
 -8.3924248e-003 -9.4685565e-003
 -1.3252345e-002 -2.0192011e-002
 -1.5188063e-002 -3.2710366e-002
 -9.2830525e-003 -3.8516089e-002
  3.2444975e-003 -3.4369164e-002
  1.5317633e-002 -2.4453622e-002
  1.8703621e-002 -1.6931642e-002
  9.9040125e-003 -1.7725448e-002
 -7.1352741e-003 -2.6347596e-002
 -2.3461960e-002 -3.6805075e-002
 -3.0855191e-002 -4.2392403e-002
 -2.6990771e-002 -4.0662897e-002
 -1.6607262e-002 -3.4700307e-002
 -7.8850685e-003 -3.0112774e-002
 -6.9791922e-003 -3.0598106e-002
 -1.4238123e-002 -3.5493517e-002
 -2.4357139e-002 -4.1004031e-002
 -3.0100901e-002 -4.3679201e-002
 -2.6599002e-002 -4.2888107e-002
 -1.3825816e-002 -4.0495359e-002
  3.7969776e-003 -3.8405033e-002
  1.9829383e-002 -3.6572051e-002
  2.8598934e-002 -3.3394143e-002
  2.6980088e-002 -2.8129257e-002
  1.5133054e-002 -2.2746393e-002
 -3.4822196e-003 -2.1017441e-002
 -2.2830301e-002 -2.5206880e-002
 -3.5999376e-002 -3.3115969e-002
 -3.7929290e-002 -3.8525105e-002
 -2.8181949e-002 -3.5511582e-002
 -1.1843818e-002 -2.3590822e-002
  2.3664806e-003 -9.4859546e-003
  6.6427512e-003 -3.3400725e-003
 -1.3427555e-003 -1.1613239e-002
 -1.6705996e-002 -3.1789586e-002
 -3.0110623e-002 -5.3174056e-002
 -3.3349749e-002 -6.3739284e-002
 -2.4469771e-002 -5.8446969e-002
 -8.9273329e-003 -4.2813326e-002
  4.0354406e-003 -2.9037797e-002
  7.2503012e-003 -2.7442638e-002
 -2.0324213e-004 -3.9289834e-002
 -1.2970322e-002 -5.6208232e-002
 -2.3416088e-002 -6.6522251e-002
 -2.6501628e-002 -6.3530740e-002
 -2.2374759e-002 -4.9812985e-002
 -1.5127757e-002 -3.4526507e-002
 -9.5210278e-003 -2.6390511e-002
 -8.1139680e-003 -2.7788870e-002
 -1.0566924e-002 -3.4350493e-002
 -1.4965062e-002 -3.9547063e-002
 -1.9457301e-002 -4.0277505e-002
 -2.2846871e-002 -3.8691890e-002
 -2.4267870e-002 -3.9317999e-002
 -2.2998971e-002 -4.4291899e-002
 -1.9305868e-002 -5.1180344e-002
 -1.5367593e-002 -5.5171505e-002
 -1.4972417e-002 -5.3499867e-002
 -2.0971545e-002 -4.7829569e-002
 -3.2118812e-002 -4.2355356e-002
 -4.2071301e-002 -3.9180730e-002
 -4.2546865e-002 -3.5442998e-002
 -2.9332044e-002 -2.5229902e-002
 -6.8406239e-003 -5.1492646e-003
  1.3031451e-002  2.1277813e-002
  1.8246597e-002  4.4844927e-002
  5.6575788e-003  5.7252523e-002
 -1.5118873e-002  5.7954497e-002
 -2.7146151e-002  5.5101412e-002
 -1.8038516e-002  5.8784392e-002
  9.9269997e-003  7.1484071e-002
  3.9300979e-002  8.3650586e-002
  4.8442109e-002  7.9373739e-002
  2.6755836e-002  4.8802036e-002
 -1.6730090e-002 -2.0341039e-003
 -5.8645391e-002 -5.2710357e-002
 -7.7295489e-002 -8.1473860e-002
 -6.8090864e-002 -8.0742980e-002
 -4.6583097e-002 -6.2848290e-002
 -3.6090781e-002 -5.0430313e-002
 -4.8846639e-002 -5.7924588e-002
 -7.5283533e-002 -7.8749522e-002
 -9.0963659e-002 -8.9828852e-002
 -7.7173976e-002 -7.1871767e-002
 -3.9419319e-002 -3.0307787e-002
 -8.1085423e-003  1.3654993e-003
 -1.7398202e-002 -1.7178813e-002
 -7.5623833e-002 -9.9076989e-002
 -1.4939835e-001 -2.0787016e-001
 -1.7653834e-001 -2.6698174e-001
 -1.0397646e-001 -2.0102901e-001
  7.2122935e-002  1.3984215e-002
  2.9150504e-001  3.2407919e-001
  4.5392834e-001  6.1489336e-001
  4.7096814e-001  7.6704391e-001
  3.1587944e-001  7.1813271e-001
  4.1063712e-002  4.9494851e-001
 -2.4754943e-001  1.9712067e-001
 -4.4435589e-001 -5.7112666e-002
 -4.9471479e-001 -1.9013056e-001
 -4.1428570e-001 -1.9532812e-001
 -2.6937042e-001 -1.2493933e-001
 -1.3434437e-001 -4.8513937e-002
 -5.3368503e-002 -1.0891544e-002
 -2.7382672e-002 -1.4776717e-002
 -2.8475255e-002 -3.3409374e-002
 -2.7090926e-002 -3.8768969e-002
 -1.1903858e-002 -2.3175764e-002
  8.5113474e-003 -7.5467873e-004
  1.9084813e-002  8.4067976e-003
  1.3407582e-002 -3.5326445e-003
 -8.3640496e-004 -2.5929049e-002
 -8.9604045e-003 -3.8890794e-002
 -1.3183792e-003 -2.9296155e-002
  1.9510961e-002 -6.6533062e-004
  4.1528564e-002  3.0092731e-002
  5.2938591e-002  4.5572705e-002
  5.0591496e-002  4.0084571e-002
  4.1298463e-002  2.2284856e-002
  3.5801061e-002  7.4443234e-003
  4.0763752e-002  6.1356689e-003
  5.4882854e-002  1.7965551e-002
  7.1174069e-002  3.4154914e-002
  8.2718057e-002  4.5599076e-002
  8.7116080e-002  4.9570750e-002
  8.6754468e-002  5.0132992e-002
  8.5912480e-002  5.3112714e-002
  8.7434154e-002  6.0486198e-002
  9.1749643e-002  6.8956979e-002
  9.8193606e-002  7.3544657e-002
  1.0649761e-001  7.2489705e-002
  1.1690248e-001  6.9158016e-002
  1.2884304e-001  6.9308306e-002
  1.4030448e-001  7.6252587e-002
  1.4889809e-001  8.8036497e-002
  1.5407159e-001  9.8966530e-002
  1.5841713e-001  1.0414548e-001
  1.6624511e-001  1.0326879e-001
  1.8020792e-001  1.0063187e-001
  1.9846709e-001  1.0149451e-001
  2.1520590e-001  1.0787275e-001
  2.2454848e-001  1.1708488e-001
  2.2517653e-001  1.2397962e-001
  2.2196402e-001  1.2491650e-001
  2.2275960e-001  1.2013188e-001
  2.3278652e-001  1.1306347e-001
  2.5041063e-001  1.0737652e-001
  2.6787991e-001  1.0455309e-001
  2.7648460e-001  1.0375685e-001
  2.7233053e-001  1.0378910e-001
  2.5834092e-001  1.0481640e-001
  2.4106589e-001  1.0813956e-001
  2.2496075e-001  1.1408060e-001
  2.0878872e-001  1.2004833e-001
  1.8718184e-001  1.2098727e-001
  1.5621217e-001  1.1242649e-001
  1.1822433e-001  9.3899790e-002
  8.2085333e-002  7.0058639e-002
  5.7942237e-002  4.8105933e-002
  5.0424487e-002  3.3261126e-002
  5.5174590e-002  2.5501938e-002
  6.1656533e-002  2.0004612e-002
  6.0166828e-002  1.1096659e-002
  4.7987837e-002 -3.3280461e-003
  3.0316412e-002 -2.0190613e-002
  1.5547315e-002 -3.3558291e-002
  8.8120011e-003 -3.9124289e-002
  8.5321254e-003 -3.7360495e-002
  8.4286890e-003 -3.3033611e-002
  3.0880919e-003 -3.1442297e-002
 -7.4271676e-003 -3.4415290e-002
 -1.7724858e-002 -3.9087821e-002
 -2.1446047e-002 -4.0248072e-002
 -1.6528936e-002 -3.4607949e-002
 -7.0493887e-003 -2.3657713e-002
 -1.9601608e-004 -1.2939220e-002
 -7.8556809e-004 -8.3741573e-003
 -7.4628078e-003 -1.2199941e-002
 -1.3547434e-002 -2.1410488e-002
 -1.1847485e-002 -2.9711516e-002
  1.0514619e-004 -3.1543127e-002
  1.8178155e-002 -2.5355423e-002
  3.4252060e-002 -1.4286887e-002
  4.1283675e-002 -3.9496503e-003
  3.7162591e-002  8.7992256e-004
  2.5137140e-002 -1.3843283e-003
  1.1205219e-002 -8.8268694e-003
  6.0554395e-004 -1.7586743e-002
 -4.1709522e-003 -2.3933056e-002
 -3.0594758e-003 -2.5825531e-002
  2.8525906e-003 -2.3375012e-002
  1.2183120e-002 -1.8376303e-002
  2.2890978e-002 -1.3417962e-002
  3.1903507e-002 -1.0923790e-002
  3.5828473e-002 -1.2199334e-002
  3.2922381e-002 -1.6927214e-002
  2.4645491e-002 -2.3129134e-002
  1.5663437e-002 -2.8061547e-002
  1.1355850e-002 -2.9684430e-002
  1.4275664e-002 -2.8029973e-002
  2.2342643e-002 -2.5114253e-002
  3.0101808e-002 -2.3562901e-002
  3.2583243e-002 -2.4658591e-002
  2.8786536e-002 -2.7237878e-002
  2.2341663e-002 -2.8272911e-002
  1.8797595e-002 -2.4967466e-002
  2.1421706e-002 -1.7016047e-002
  2.8721256e-002 -7.3986512e-003
  3.5411900e-002 -1.0353948e-003
  3.6206569e-002 -1.9310954e-003
  2.9484082e-002 -1.0719301e-002
  1.8281773e-002 -2.4080963e-002
  7.9042496e-003 -3.6537162e-002
  2.1075566e-003 -4.3505073e-002
  1.0280859e-003 -4.3515492e-002
  1.9561772e-003 -3.8589175e-002
  2.2417903e-003 -3.2549739e-002
  1.8889902e-003 -2.8546344e-002
  3.5063207e-003 -2.7557589e-002
  9.7309429e-003 -2.8478679e-002
  2.0332058e-002 -2.9518410e-002
  3.1438281e-002 -2.9698161e-002
  3.7906127e-002 -2.9273897e-002
  3.6848643e-002 -2.9033800e-002
  2.9771144e-002 -2.9242143e-002
  2.1659751e-002 -2.9177482e-002
  1.7432676e-002 -2.7737005e-002
  1.8666749e-002 -2.4465732e-002
  2.2897386e-002 -2.0218070e-002
  2.6029079e-002 -1.6695993e-002
  2.5780527e-002 -1.5200917e-002
  2.3220367e-002 -1.5758266e-002
  2.1232262e-002 -1.7259111e-002
  2.1260010e-002 -1.8650900e-002
  2.1381102e-002 -2.0041240e-002
  1.7521180e-002 -2.2741835e-002
  7.4122388e-003 -2.7812287e-002
 -6.0475727e-003 -3.4320977e-002
 -1.5181018e-002 -3.8942275e-002
 -1.2388950e-002 -3.7779415e-002
  3.7658805e-003 -2.9448298e-002
  2.5839901e-002 -1.7148043e-002
  4.0919742e-002 -7.6903674e-003
  3.8665743e-002 -7.4714364e-003
  1.8602330e-002 -1.7836865e-002
 -8.4825992e-003 -3.3166214e-002
 -2.6785004e-002 -4.3597939e-002
 -2.5543262e-002 -4.1233213e-002
 -6.3490242e-003 -2.5602622e-002
  1.7749021e-002 -4.4816523e-003
  3.0732393e-002  1.1043735e-002
  2.4203385e-002  1.4108389e-002
  2.6695466e-003  6.9532488e-003
 -1.9969527e-002 -4.4624816e-004
 -3.0094648e-002  2.7174372e-003
 -2.3467405e-002  2.0484496e-002
 -7.0553899e-003  4.7446464e-002
  7.3017645e-003  7.2909325e-002
  1.2371790e-002  8.8834931e-002
  1.0850694e-002  9.5166702e-002
  1.2407632e-002  9.8503546e-002
  2.4779676e-002  1.0496634e-001
  4.6144480e-002  1.1334848e-001
  6.4895182e-002  1.1461920e-001
  6.7701045e-002  9.9031129e-002
  4.9888098e-002  6.5587392e-002
  1.9983466e-002  2.5844707e-002
 -5.6163656e-003 -2.4108305e-003
 -1.4452517e-002 -7.9902535e-003
 -7.2647137e-003  4.0309789e-003
  2.7347731e-003  1.4451462e-002
  6.5485062e-004  4.0365147e-003
 -1.7292134e-002 -3.0058322e-002
 -3.9235592e-002 -6.8746644e-002
 -4.6314789e-002 -8.3072238e-002
 -2.9017851e-002 -5.7344131e-002
  1.4027790e-003 -6.6190183e-003
  1.7062571e-002  2.6974518e-002
 -6.8419401e-003  1.0667321e-003
 -6.9220971e-002 -9.2441364e-002
 -1.3427920e-001 -2.0923804e-001
 -1.4666889e-001 -2.6768241e-001
 -6.4632789e-002 -1.9292814e-001
  1.0807777e-001  3.4210251e-002
  3.1311917e-001  3.5462320e-001
  4.6050291e-001  6.5164943e-001
  4.7314577e-001  8.0653662e-001
  3.2858653e-001  7.5821424e-001
  7.3365995e-002  5.3323405e-001
 -1.9849238e-001  2.2931620e-001
 -3.9120985e-001 -3.6636469e-002
 -4.5144660e-001 -1.8532681e-001
 -3.8750431e-001 -2.0520529e-001
 -2.5560375e-001 -1.4294466e-001
 -1.2438942e-001 -6.5505987e-002
 -4.0030710e-002 -2.0186314e-002
 -1.0420853e-002 -1.5690049e-002
 -1.3491562e-002 -3.0785231e-002
 -1.9666582e-002 -3.8734917e-002
 -1.2158042e-002 -2.8202730e-002
  6.5991749e-003 -7.5601506e-003
  2.3063923e-002  6.4382119e-003
  2.6299987e-002  4.0675574e-003
  1.6690265e-002 -1.0199622e-002
  4.4586682e-003 -2.2772903e-002
  8.5097753e-004 -2.2498147e-002
  9.8296646e-003 -8.7946907e-003
  2.6006602e-002  9.4129739e-003
  3.9716889e-002  2.1841711e-002
  4.4558793e-002  2.4766340e-002
  4.1621227e-002  2.2532829e-002
  3.7805488e-002  2.2289985e-002
  4.0248889e-002  2.7260102e-002
  5.1069394e-002  3.4225874e-002
  6.6362080e-002  3.7101788e-002
  7.9259392e-002  3.3027116e-002
  8.4748618e-002  2.5500731e-002
  8.2611969e-002  2.1855987e-002
  7.7082043e-002  2.7281510e-002
  7.3754963e-002  4.0392505e-002
  7.6370796e-002  5.4184999e-002
  8.5269089e-002  6.1543584e-002
  9.8011021e-002  6.0890510e-002
  1.1132196e-001  5.7491753e-002
  1.2281459e-001  5.9337586e-002
  1.3164571e-001  7.0885602e-002
  1.3828762e-001  8.9502176e-002
  1.4351850e-001  1.0717236e-001
  1.4772025e-001  1.1599903e-001
  1.5083075e-001  1.1346527e-001
  1.5287771e-001  1.0366511e-001
  1.5480351e-001  9.4273784e-002
  1.5877814e-001  9.1729913e-002
  1.6760662e-001  9.8062414e-002
  1.8301417e-001  1.1085903e-001
  2.0375742e-001  1.2550630e-001
  2.2476609e-001  1.3743954e-001
  2.3868969e-001  1.4324654e-001
  2.3949800e-001  1.4088279e-001
  2.2635386e-001  1.3008296e-001
  2.0497806e-001  1.1328803e-001
  1.8518918e-001  9.5947002e-002
  1.7529317e-001  8.4867640e-002
  1.7663559e-001  8.4602528e-002
  1.8217691e-001  9.4082601e-002
  1.8044111e-001  1.0615811e-001
  1.6284145e-001  1.1125259e-001
  1.2966000e-001  1.0319620e-001
  9.0453477e-002  8.3183352e-002
  5.8186923e-002  5.8762327e-002
  4.0975048e-002  3.8479081e-002
  3.6956420e-002  2.5844314e-002
  3.5708700e-002  1.7298603e-002
  2.5891137e-002  5.7997267e-003
  3.3918916e-003 -1.2784128e-002
 -2.5350742e-002 -3.5312616e-002
 -4.7426959e-002 -5.2904305e-002
 -5.2270348e-002 -5.7492114e-002
 -3.9007262e-002 -4.8471055e-002
 -1.7401993e-002 -3.4238860e-002
 -1.7052976e-003 -2.6969636e-002
 -1.6555285e-003 -3.4186584e-002
 -1.6429363e-002 -5.3165677e-002
 -3.5672279e-002 -7.2471128e-002
 -4.6636784e-002 -7.9730161e-002
 -4.2338262e-002 -7.0149644e-002
 -2.5583659e-002 -4.9888873e-002
 -6.7435801e-003 -3.1972382e-002
  3.0013053e-003 -2.7709237e-002
 -1.7231208e-003 -3.9588027e-002
 -1.7870313e-002 -6.0283993e-002
 -3.6430704e-002 -7.7936038e-002
 -4.7883656e-002 -8.3618197e-002
 -4.7123149e-002 -7.6048747e-002
 -3.5394450e-002 -6.0944064e-002
 -1.8960949e-002 -4.6439516e-002
 -5.7107422e-003 -3.8249467e-002
 -1.3891282e-003 -3.7509267e-002
 -7.2078060e-003 -4.1862947e-002
 -1.9477115e-002 -4.7971770e-002
 -3.1290257e-002 -5.3185894e-002
 -3.5728280e-002 -5.5754865e-002
 -2.9457836e-002 -5.4529478e-002
 -1.4919255e-002 -4.9148716e-002
  3.4988393e-004 -4.0873111e-002
  7.3786894e-003 -3.2991301e-002
  9.9061413e-004 -2.9585552e-002
 -1.6760002e-002 -3.3020357e-002
 -3.7176944e-002 -4.1869230e-002
 -4.9593082e-002 -5.1093929e-002
 -4.7616318e-002 -5.4924506e-002
 -3.3171289e-002 -5.0672881e-002
 -1.5541530e-002 -4.0735488e-002
 -5.8698021e-003 -3.1330199e-002
 -1.0626852e-002 -2.8722780e-002
 -2.8065853e-002 -3.5403508e-002
 -4.9552559e-002 -4.8876775e-002
 -6.4758828e-002 -6.3613016e-002
 -6.7114825e-002 -7.4139702e-002
 -5.6365491e-002 -7.7364440e-002
 -3.7490110e-002 -7.3001257e-002
 -1.7342685e-002 -6.2625465e-002
 -1.7764441e-003 -4.8968883e-002
  5.6171870e-003 -3.5844615e-002
  3.3444950e-003 -2.8095135e-002
 -8.1770465e-003 -3.0162405e-002
 -2.6353993e-002 -4.3486438e-002
 -4.6148865e-002 -6.4166160e-002
 -6.1301389e-002 -8.3446249e-002
 -6.6893458e-002 -9.1845959e-002
 -6.2249531e-002 -8.4890057e-002
 -5.1725902e-002 -6.6406955e-002
 -4.2325876e-002 -4.6960639e-002
 -3.9447458e-002 -3.7649855e-002
 -4.3453410e-002 -4.2999550e-002
 -4.9778908e-002 -5.8230999e-002
 -5.2449299e-002 -7.2633423e-002
 -4.8585081e-002 -7.7012695e-002
 -4.0320593e-002 -6.9707717e-002
 -3.2841585e-002 -5.7113065e-002
 -3.0086854e-002 -4.8422974e-002
 -3.1810870e-002 -4.8877412e-002
 -3.4349290e-002 -5.6515952e-002
 -3.4515030e-002 -6.4605470e-002
 -3.3208217e-002 -6.7582011e-002
 -3.5160526e-002 -6.5278855e-002
 -4.4728368e-002 -6.2318798e-002
 -6.0875919e-002 -6.3357385e-002
 -7.5919583e-002 -6.8419623e-002
 -7.9703992e-002 -7.2494051e-002
 -6.6964625e-002 -6.9936846e-002
 -4.2247493e-002 -5.9961748e-002
 -1.8248950e-002 -4.8386502e-002
 -8.0714312e-003 -4.3858687e-002
 -1.6514156e-002 -5.1191850e-002
 -3.6677399e-002 -6.7089801e-002
 -5.4619840e-002 -8.2080856e-002
 -5.8786582e-002 -8.7264793e-002
 -4.7502609e-002 -8.0821902e-002
 -2.9213902e-002 -6.9014264e-002
 -1.5815013e-002 -6.1100470e-002
 -1.4028255e-002 -6.1950933e-002
 -2.1324476e-002 -6.8489194e-002
 -2.9189081e-002 -7.2636121e-002
 -3.0598913e-002 -6.8401635e-002
 -2.5634536e-002 -5.7241140e-002
 -2.0905998e-002 -4.7285636e-002
 -2.3377394e-002 -4.6849340e-002
 -3.4057698e-002 -5.7656834e-002
 -4.6535072e-002 -7.3249277e-002
 -5.1700261e-002 -8.3897069e-002
 -4.4805923e-002 -8.4086478e-002
 -2.9147487e-002 -7.6427382e-002
 -1.3567787e-002 -6.8902944e-002
 -5.8322179e-003 -6.7898202e-002
 -7.3236501e-003 -7.2889406e-002
 -1.3013732e-002 -7.7329223e-002
 -1.6424657e-002 -7.4824428e-002
 -1.4975626e-002 -6.5203496e-002
 -1.1411227e-002 -5.4792509e-002
 -1.0194805e-002 -5.0441903e-002
 -1.2642227e-002 -5.2494412e-002
 -1.5293252e-002 -5.3032122e-002
 -1.3405774e-002 -4.1925471e-002
 -6.2162409e-003 -1.6135576e-002
  1.1272094e-003  1.5749729e-002
  1.5756753e-003  3.8418199e-002
 -6.8168035e-003  4.1216953e-002
 -1.7046939e-002  2.7145292e-002
 -1.7087244e-002  1.1336510e-002
  4.8227915e-004  9.3244724e-003
  3.0362825e-002  2.3656695e-002
  5.5414795e-002  4.0126931e-002
  5.7706825e-002  3.7864631e-002
  3.2109205e-002  6.4195218e-003
 -8.0768236e-003 -4.3641350e-002
 -3.8935277e-002 -8.6102991e-002
 -4.2782674e-002 -9.7928123e-002
 -2.1582230e-002 -7.7501699e-002
  3.8367379e-003 -4.7424953e-002
  9.3618599e-003 -3.7896836e-002
 -1.3291836e-002 -6.2480522e-002
 -4.8991096e-002 -1.0543226e-001
 -7.0494112e-002 -1.3251702e-001
 -6.1226020e-002 -1.1936122e-001
 -3.1718168e-002 -7.5915976e-002
 -1.5004213e-002 -4.5701538e-002
 -4.1110769e-002 -7.5478066e-002
 -1.0785940e-001 -1.7403099e-001
 -1.7104108e-001 -2.9053310e-001
 -1.6553277e-001 -3.3311500e-001
 -4.8102611e-002 -2.2197018e-001
  1.6554160e-001  5.4427864e-002
  3.9606171e-001  4.1748885e-001
  5.3588910e-001  7.2925390e-001
  5.0642650e-001  8.6128052e-001
  3.0345090e-001  7.6195938e-001
  2.5546743e-003  4.8237532e-001
 -2.7890935e-001  1.4615243e-001
 -4.4125119e-001 -1.1734920e-001
 -4.4851354e-001 -2.3617476e-001
 -3.3648961e-001 -2.2009657e-001
 -1.8247536e-001 -1.3736324e-001
 -5.8779263e-002 -6.4367075e-002
  1.2374212e-003 -4.2167620e-002
  7.8732569e-003 -6.4147757e-002
 -5.7596088e-003 -9.5592144e-002
 -1.1518727e-002 -1.0573673e-001
 -1.8911237e-003 -8.8550701e-002
  1.3402520e-002 -6.0746264e-002
  2.2212943e-002 -4.3674816e-002
  2.2123494e-002 -4.5696362e-002
  2.1095779e-002 -5.8255959e-002
  2.8183707e-002 -6.6134538e-002
  4.4020755e-002 -6.1355735e-002
  5.9429498e-002 -4.9000253e-002
  6.3225989e-002 -4.1039730e-002
  5.2014668e-002 -4.4779465e-002
  3.4011726e-002 -5.6037544e-002
  2.3288795e-002 -6.2690279e-002
  2.9223493e-002 -5.5223889e-002
  4.9502356e-002 -3.5152667e-002
  7.2032772e-002 -1.4374472e-002
  8.3927415e-002 -6.0512698e-003
  8.0541400e-002 -1.4440458e-002
  6.8064433e-002 -3.1572605e-002
  5.8187245e-002 -4.3281325e-002
  5.9370096e-002 -3.9523584e-002
  7.1571521e-002 -2.1097666e-002
  8.7738539e-002  1.9614185e-003
  1.0019743e-001  1.8443054e-002
  1.0627146e-001  2.3811188e-002
  1.0903748e-001  2.2117394e-002
  1.1333417e-001  2.1330117e-002
  1.2093185e-001  2.6523448e-002
  1.2913503e-001  3.6598590e-002
  1.3371313e-001  4.6543241e-002
  1.3345244e-001  5.2643211e-002
  1.3206789e-001  5.5727060e-002
  1.3572832e-001  5.9802046e-002
  1.4793110e-001  6.7557645e-002
  1.6618823e-001  7.7080735e-002
  1.8316340e-001  8.2933701e-002
  1.9168645e-001  8.0827062e-002
  1.8982300e-001  7.1863092e-002
  1.8228539e-001  6.2554200e-002
  1.7698345e-001  6.0038573e-002
  1.7944481e-001  6.6494203e-002
  1.8910477e-001  7.7079922e-002
  2.0005160e-001  8.3519142e-002
  2.0535752e-001  8.0546281e-002
  2.0151837e-001  7.0246247e-002
  1.8998066e-001  6.0705290e-002
  1.7500258e-001  5.9754315e-002
  1.5978362e-001  6.8510819e-002
  1.4416336e-001  7.9758149e-002
  1.2536442e-001  8.2516541e-002
  1.0117778e-001  6.9722278e-002
  7.2856332e-002  4.3372310e-002
  4.5467415e-002  1.3590447e-002
  2.5186252e-002 -7.8164508e-003
  1.5650537e-002 -1.4617415e-002
  1.5631567e-002 -9.4748776e-003
  1.9542071e-002 -1.4280674e-003
  2.0561326e-002  3.2267306e-004
  1.4462343e-002 -8.0554429e-003
  1.9071237e-003 -2.3533763e-002
 -1.2114683e-002 -3.9096095e-002
 -2.1262447e-002 -4.8341624e-002
 -2.1667152e-002 -4.8817444e-002
 -1.4325519e-002 -4.2285616e-002
 -4.8844622e-003 -3.2772113e-002
 -6.2062770e-004 -2.4126346e-002
 -6.2339116e-003 -1.8663261e-002
 -2.0710272e-002 -1.7078962e-002
 -3.7354118e-002 -1.8883553e-002
 -4.7382508e-002 -2.2768545e-002
 -4.5065954e-002 -2.6807977e-002
 -3.1459777e-002 -2.8932846e-002
 -1.4224223e-002 -2.7860125e-002
 -3.2791697e-003 -2.3912347e-002
 -4.6827384e-003 -1.8942494e-002
 -1.6926847e-002 -1.5314048e-002
 -3.1802603e-002 -1.4301854e-002
 -3.9600429e-002 -1.5156542e-002
 -3.5114085e-002 -1.5610986e-002
 -2.0504654e-002 -1.3476825e-002
 -3.3133715e-003 -8.0021352e-003
  8.6882337e-003 -4.9979889e-004
  1.2212788e-002  6.4243039e-003
  9.2212545e-003  1.0203305e-002
  4.0268096e-003  9.4113613e-003
 -8.1700128e-004  3.9607898e-003
 -6.3731579e-003 -5.2234145e-003
 -1.5457196e-002 -1.6521126e-002
 -2.9035879e-002 -2.7718612e-002
 -4.4088419e-002 -3.6242632e-002
 -5.4995975e-002 -3.9876954e-002
 -5.7431329e-002 -3.7856273e-002
 -5.1681578e-002 -3.1639561e-002
 -4.2422432e-002 -2.4410867e-002
 -3.5010443e-002 -1.9358936e-002
 -3.1350546e-002 -1.7761708e-002
 -2.8885029e-002 -1.8321303e-002
 -2.3814294e-002 -1.8447736e-002
 -1.5675557e-002 -1.6604883e-002
 -9.4543718e-003 -1.3884271e-002
 -1.2481020e-002 -1.3378332e-002
 -2.8316933e-002 -1.7619320e-002
 -5.2236797e-002 -2.6113857e-002
 -7.2379642e-002 -3.4953910e-002
 -7.6866926e-002 -3.9357504e-002
 -6.2122404e-002 -3.7020010e-002
 -3.6086132e-002 -3.0137785e-002
 -1.3655786e-002 -2.4198480e-002
 -7.1690866e-003 -2.4125569e-002
 -1.8193946e-002 -3.0619705e-002
 -3.6962069e-002 -3.9634918e-002
 -4.9469424e-002 -4.5282644e-002
 -4.7253057e-002 -4.4138390e-002
 -3.2999967e-002 -3.7709519e-002
 -1.7813050e-002 -3.1094754e-002
 -1.2657341e-002 -2.8994154e-002
 -2.0535080e-002 -3.2091244e-002
 -3.5001061e-002 -3.6805239e-002
 -4.5696919e-002 -3.8286971e-002
 -4.6459478e-002 -3.4452125e-002
 -3.9625979e-002 -2.7745040e-002
 -3.3691968e-002 -2.3291570e-002
 -3.6288647e-002 -2.4927410e-002
 -4.8245045e-002 -3.2308661e-002
 -6.3210711e-002 -4.1305270e-002
 -7.2805359e-002 -4.7271207e-002
 -7.2971878e-002 -4.8495357e-002
 -6.6529966e-002 -4.7066067e-002
 -6.0387163e-002 -4.6619062e-002
 -5.9934986e-002 -4.8980291e-002
 -6.5219480e-002 -5.2598442e-002
 -7.1598866e-002 -5.3938883e-002
 -7.4036329e-002 -5.0647529e-002
 -7.1083708e-002 -4.3815974e-002
 -6.5508145e-002 -3.7262468e-002
 -6.1387780e-002 -3.4634686e-002
 -6.0643679e-002 -3.6581363e-002
 -6.2147447e-002 -4.0445964e-002
 -6.3723538e-002 -4.2657866e-002
 -6.4964169e-002 -4.1695920e-002
 -6.7975433e-002 -3.9150872e-002
 -7.4976906e-002 -3.7982116e-002
 -8.5034305e-002 -3.9677354e-002
 -9.3219112e-002 -4.2731676e-002
 -9.3639687e-002 -4.3981892e-002
 -8.4207672e-002 -4.1447330e-002
 -6.9257543e-002 -3.6249914e-002
 -5.7330614e-002 -3.1704382e-002
 -5.5406212e-002 -3.0434555e-002
 -6.3893752e-002 -3.2076609e-002
 -7.6402897e-002 -3.3775755e-002
 -8.4513905e-002 -3.3205159e-002
 -8.4046459e-002 -3.1373582e-002
 -7.7623406e-002 -3.2268580e-002
 -7.1931843e-002 -3.9264304e-002
 -7.1776816e-002 -5.1059377e-002
 -7.6187131e-002 -6.1068000e-002
 -7.9970602e-002 -6.1643909e-002
 -7.9090258e-002 -5.0363329e-002
 -7.5014065e-002 -3.3195545e-002
 -7.3755817e-002 -2.1348004e-002
 -8.0054942e-002 -2.3285330e-002
 -9.1494536e-002 -3.7800917e-002
 -9.8379923e-002 -5.3920841e-002
 -9.0558876e-002 -5.8415188e-002
 -6.6474536e-002 -4.5849562e-002
 -3.6777255e-002 -2.3343486e-002
 -1.8546762e-002 -5.8789296e-003
 -2.3396725e-002 -5.1401395e-003
 -4.8240290e-002 -2.0186267e-002
 -7.6244571e-002 -3.7383465e-002
 -8.8096239e-002 -4.0102887e-002
 -7.5605993e-002 -2.1055267e-002
 -4.7515384e-002  1.2243187e-002
 -2.2463717e-002  4.3276655e-002
 -1.4589842e-002  5.9080701e-002
 -2.2753796e-002  5.9686553e-002
 -3.2023697e-002  5.6603773e-002
 -2.6604081e-002  6.1544887e-002
 -3.7019294e-003  7.4655667e-002
  2.2895064e-002  8.2615702e-002
  3.3105739e-002  6.9121613e-002
  1.7077671e-002  2.9827126e-002
 -1.5523730e-002 -2.0727401e-002
 -4.1660174e-002 -5.7304265e-002
 -4.2519198e-002 -6.2315449e-002
 -1.8879464e-002 -4.0289504e-002
  8.7280553e-003 -1.5817436e-002
  1.6023921e-002 -1.5046452e-002
 -4.7955187e-003 -4.3926781e-002
 -3.7344657e-002 -8.1172918e-002
 -5.3656467e-002 -9.3799536e-002
 -3.8671033e-002 -6.5506778e-002
 -6.8151548e-003 -1.5927107e-002
  5.1104694e-003  7.2149860e-003
 -3.3019028e-002 -3.7820580e-002
 -1.1363528e-001 -1.4831707e-001
 -1.8369240e-001 -2.6327445e-001
 -1.7137176e-001 -2.8984305e-001
 -3.4208253e-002 -1.5837977e-001
  2.0255952e-001  1.2702250e-001
  4.4577172e-001  4.7677609e-001
  5.7789510e-001  7.5457774e-001
  5.2099208e-001  8.4657002e-001
  2.8274204e-001  7.2067050e-001
 -4.4343130e-002  4.4107479e-001
 -3.3070883e-001  1.3039723e-001
 -4.7622651e-001 -9.6288919e-002
 -4.5633168e-001 -1.8599006e-001
 -3.2322655e-001 -1.6118200e-001
 -1.6608419e-001 -9.0023323e-002
 -5.7971343e-002 -3.7530150e-002
 -2.2282159e-002 -3.0042131e-002
 -3.4530685e-002 -5.1825846e-002
 -5.1508186e-002 -6.9256479e-002
 -4.4410980e-002 -6.0908366e-002
 -1.3849042e-002 -3.1655912e-002
  1.8754931e-002 -4.0953801e-003
  3.2472311e-002  2.3224151e-003
  2.3258728e-002 -1.3195422e-002
  4.4543626e-003 -3.3915713e-002
 -5.9704221e-003 -4.0344687e-002
  4.9907054e-004 -2.5799036e-002
  1.8422371e-002 -5.9373497e-004
  3.5092318e-002  1.7298173e-002
  4.1807461e-002  1.6820253e-002
  3.9994432e-002  1.8722988e-003
  3.8079329e-002 -1.2796819e-002
  4.2826414e-002 -1.3754558e-002
  5.3102796e-002  8.5954392e-004
  6.1017490e-002  2.0642203e-002
  5.9226920e-002  3.1541419e-002
  4.7785022e-002  2.6626559e-002
  3.4887498e-002  1.0717176e-002
  3.0879291e-002 -3.9564235e-003
  4.0439077e-002 -6.9909782e-003
  5.9108523e-002  3.3608409e-003
  7.6653043e-002  2.0381534e-002
  8.4609819e-002  3.4994556e-002
  8.2059278e-002  4.2354885e-002
  7.5688926e-002  4.4112390e-002
  7.4437434e-002  4.5315770e-002
  8.3157423e-002  4.9545422e-002
  9.9869349e-002  5.6290674e-002
  1.1801760e-001  6.2441671e-002
  1.3140836e-001  6.5716152e-002
  1.3797692e-001  6.6740753e-002
  1.4001728e-001  6.7998782e-002
  1.4161091e-001  7.1099783e-002
  1.4545791e-001  7.4986010e-002
  1.5184759e-001  7.7047140e-002
  1.5946023e-001  7.5853964e-002
  1.6693667e-001  7.2986527e-002
  1.7342870e-001  7.1865629e-002
  1.7815305e-001  7.4517550e-002
  1.7988777e-001  7.9153359e-002
  1.7739781e-001  8.1030702e-002
  1.7057781e-001  7.6274984e-002
  1.6120949e-001  6.5685394e-002
  1.5226796e-001  5.5036592e-002
  1.4581673e-001  5.1254789e-002
  1.4115500e-001  5.7045006e-002
  1.3494533e-001  6.8197814e-002
  1.2334014e-001  7.5910913e-002
  1.0477233e-001  7.2769978e-002
  8.1212567e-002  5.7914130e-002
  5.6901478e-002  3.7581159e-002
  3.5622583e-002  2.0611607e-002
  1.8591160e-002  1.2325677e-002
  4.4289038e-003  1.1217048e-002
 -8.7875923e-003  1.0861084e-002
 -2.1501625e-002  5.1878100e-003
 -3.2249727e-002 -6.8628160e-003
 -3.9283277e-002 -2.0867230e-002
 -4.2542083e-002 -3.0639784e-002
 -4.4257227e-002 -3.3026850e-002
 -4.7420155e-002 -3.0056193e-002
 -5.3403433e-002 -2.7016973e-002
 -6.0741136e-002 -2.8336279e-002
 -6.5933020e-002 -3.4502594e-002
 -6.6081710e-002 -4.2400722e-002
 -6.0881251e-002 -4.8306555e-002
 -5.2672866e-002 -5.0867003e-002
 -4.4459723e-002 -5.1638530e-002
 -3.7656303e-002 -5.2915558e-002
 -3.1518901e-002 -5.5134881e-002
 -2.4406922e-002 -5.5965312e-002
 -1.5699703e-002 -5.2284531e-002
 -6.6609788e-003 -4.3265875e-002
  4.5520708e-004 -3.1699821e-002
  4.3146868e-003 -2.2705628e-002
  5.4934133e-003 -2.0456623e-002
  5.5223977e-003 -2.5428375e-002
  5.0875641e-003 -3.4209912e-002
  3.2148020e-003 -4.1938720e-002
 -1.6108711e-003 -4.5367645e-002
 -9.0818683e-003 -4.4384046e-002
 -1.5784322e-002 -4.1135085e-002
 -1.6723949e-002 -3.7901587e-002
 -8.8810011e-003 -3.5501434e-002
  5.6787407e-003 -3.3424696e-002
  2.0144154e-002 -3.1074637e-002
  2.7063622e-002 -2.8787490e-002
  2.3666633e-002 -2.7666049e-002
  1.4274646e-002 -2.8469156e-002
  7.5187351e-003 -3.0782494e-002
  1.0095127e-002 -3.3374806e-002
  2.1495764e-002 -3.5442771e-002
  3.3777848e-002 -3.7511971e-002
  3.6969653e-002 -4.1023542e-002
  2.6314482e-002 -4.6822536e-002
  6.2152315e-003 -5.3856482e-002
 -1.2445213e-002 -5.9484628e-002
 -1.9411078e-002 -6.1295238e-002
 -1.1706469e-002 -5.9097441e-002
  5.0227030e-003 -5.5313321e-002
  2.1036837e-002 -5.3324579e-002
  2.9412473e-002 -5.4917783e-002
  3.0129332e-002 -5.8879995e-002
  2.8599665e-002 -6.1876590e-002
  3.0231263e-002 -6.0984870e-002
  3.5760838e-002 -5.5812726e-002
  4.0958160e-002 -4.8618539e-002
  4.0716846e-002 -4.2385645e-002
  3.3840067e-002 -3.8650575e-002
  2.4386055e-002 -3.6907268e-002
  1.8427975e-002 -3.6004586e-002
  1.9150707e-002 -3.5955898e-002
  2.4192983e-002 -3.8323043e-002
  2.7710470e-002 -4.4501261e-002
  2.5529295e-002 -5.3379882e-002
  1.9030209e-002 -6.0751538e-002
  1.4385744e-002 -6.1672440e-002
  1.7542798e-002 -5.4285388e-002
  2.9010205e-002 -4.2131595e-002
  4.2582500e-002 -3.2675458e-002
  4.9365776e-002 -3.2476704e-002
  4.4111365e-002 -4.2372768e-002
  2.9117049e-002 -5.6399035e-002
  1.2667048e-002 -6.5524731e-002
  3.3472419e-003 -6.3765759e-002
  4.4470464e-003 -5.2231131e-002
  1.2711395e-002 -3.8121079e-002
  2.1749292e-002 -2.9429376e-002
  2.7103666e-002 -2.9365189e-002
  2.8790538e-002 -3.4557406e-002
  2.9689653e-002 -3.8247493e-002
  3.1756188e-002 -3.5666245e-002
  3.3568051e-002 -2.7418800e-002
  3.1608380e-002 -1.8431953e-002
  2.3912765e-002 -1.3752321e-002
  1.2736651e-002 -1.4798884e-002
  3.4950932e-003 -1.9026881e-002
  5.6797121e-004 -2.2856411e-002
  3.5074781e-003 -2.4903177e-002
  7.1755803e-003 -2.6493022e-002
  6.0197671e-003 -2.9074188e-002
 -9.5499344e-004 -3.1410324e-002
 -8.6495638e-003 -2.9511999e-002
 -9.6090545e-003 -2.0202481e-002
 -3.8884470e-004 -5.3346032e-003
  1.4652555e-002  7.5204661e-003
  2.5614538e-002  9.4737853e-003
  2.4093119e-002 -2.8374302e-003
  9.7008191e-003 -2.3419842e-002
 -9.0951612e-003 -3.9856321e-002
 -2.0667373e-002 -4.1572056e-002
 -1.8493317e-002 -2.7494281e-002
 -5.7483625e-003 -7.0278866e-003
  7.1155254e-003  6.9028607e-003
  9.9058017e-003  7.7004362e-003
 -4.2975015e-004  1.6993380e-004
 -1.8473201e-002 -3.3396171e-003
 -3.5031145e-002  7.0978528e-003
 -4.3545561e-002  3.0750152e-002
 -4.2968748e-002  5.6673256e-002
 -3.5766013e-002  7.2462969e-002
 -2.3795385e-002  7.4462014e-002
 -6.6582349e-003  7.0589319e-002
  1.5612504e-002  7.3067696e-002
  3.8357950e-002  8.6652206e-002
  5.1573109e-002  1.0234719e-001
  4.5435971e-002  1.0282981e-001
  1.8446701e-002  7.6291757e-002
 -1.8437545e-002  2.7785380e-002
 -4.6960669e-002 -2.1810272e-002
 -5.3632610e-002 -4.9835660e-002
 -4.0283628e-002 -4.8612505e-002
 -2.4124814e-002 -3.1559703e-002
 -2.5427264e-002 -2.2472627e-002
 -5.1177166e-002 -3.5603734e-002
 -8.7533257e-002 -6.2374238e-002
 -1.0865572e-001 -7.7046232e-002
 -9.7206759e-002 -5.9019667e-002
 -6.1184337e-002 -1.4916753e-002
 -3.2279623e-002  1.8912988e-002
 -4.3529088e-002  2.4883660e-005
 -1.0019858e-001 -8.4148578e-002
 -1.6588233e-001 -1.9419652e-001
 -1.7791473e-001 -2.5071665e-001
 -8.6907731e-002 -1.7867806e-001
  1.0391407e-001  4.1501848e-002
  3.2690156e-001  3.4980658e-001
  4.7798007e-001  6.2862107e-001
  4.7112123e-001  7.6116144e-001
  2.8780222e-001  6.9292598e-001
 -8.8678843e-003  4.5939604e-001
 -3.0487636e-001  1.6425696e-001
 -4.9321410e-001 -7.7624012e-002
 -5.2490076e-001 -1.9725461e-001
 -4.2509884e-001 -1.9638236e-001
 -2.6838973e-001 -1.3016562e-001
 -1.3219222e-001 -6.4284395e-002
 -5.7818588e-002 -3.6276539e-002
 -4.0090495e-002 -4.3495722e-002
 -4.5844356e-002 -5.9222300e-002
 -4.3860017e-002 -5.9964386e-002
 -2.4769378e-002 -4.2863431e-002
 -2.7563830e-004 -2.3060076e-002
  1.2903968e-002 -1.7197747e-002
  9.1086895e-003 -2.8487109e-002
 -2.4179208e-003 -4.4908131e-002
 -6.8374513e-003 -5.0469057e-002
  3.0618909e-003 -3.8845504e-002
  2.0988773e-002 -1.8156400e-002
  3.2839897e-002 -3.7007089e-003
  2.8763446e-002 -5.3787573e-003
  1.1426735e-002 -2.0260157e-002
 -5.8986858e-003 -3.5672311e-002
 -9.4827247e-003 -3.9657768e-002
  4.7239342e-003 -2.9851410e-002
  2.8651735e-002 -1.3989008e-002
  4.8709522e-002 -2.4330531e-003
  5.5838749e-002  5.3902482e-004
  5.1366446e-002 -6.4596553e-004
  4.4596328e-002  2.1437688e-003
  4.4831845e-002  1.2728114e-002
  5.4458006e-002  2.6874902e-002
  6.8186206e-002  3.5797953e-002
  7.8358156e-002  3.3962412e-002
  8.1474390e-002  2.4403009e-002
  8.0616705e-002  1.6916215e-002
  8.2236828e-002  2.0535491e-002
  9.0515037e-002  3.6380798e-002
  1.0403149e-001  5.6608955e-002
  1.1733002e-001  7.0386071e-002
  1.2594123e-001  7.1964503e-002
  1.3023187e-001  6.4531699e-002
  1.3507032e-001  5.7000389e-002
  1.4537818e-001  5.6509421e-002
  1.6155341e-001  6.2809780e-002
  1.7856009e-001  6.8973763e-002
  1.8951726e-001  6.7600569e-002
  1.9092280e-001  5.7310235e-002
  1.8545385e-001  4.4185167e-002
  1.7995496e-001  3.6986768e-002
  1.8015293e-001  4.0148941e-002
  1.8632158e-001  5.0254291e-002
  1.9320287e-001  5.8686426e-002
  1.9418433e-001  5.8367202e-002
  1.8633892e-001  4.9355059e-002
  1.7254672e-001  3.8556143e-002
  1.5895598e-001  3.4157357e-002
  1.4980941e-001  3.9144659e-002
  1.4371356e-001  4.8841928e-002
  1.3433625e-001  5.4308608e-002
  1.1513506e-001  4.8754555e-002
  8.4722975e-002  3.2088449e-002
  4.8876414e-002  1.0375854e-002
  1.7615733e-002 -8.8820054e-003
 -7.6691072e-004 -2.1876984e-002
 -4.8741020e-003 -3.0243282e-002
 -1.1526098e-003 -3.8604189e-002
 -5.0007117e-005 -5.0355317e-002
 -9.8439372e-003 -6.5080440e-002
 -3.1861719e-002 -7.9389750e-002
 -5.9940197e-002 -8.9833005e-002
 -8.4029574e-002 -9.5362537e-002
 -9.5574707e-002 -9.7350142e-002
 -9.1637387e-002 -9.7705435e-002
 -7.5859193e-002 -9.7049041e-002
 -5.6154507e-002 -9.4693019e-002
 -4.0761912e-002 -9.0246501e-002
 -3.4732356e-002 -8.5083346e-002
 -3.8599083e-002 -8.2053426e-002
 -4.9065190e-002 -8.3301748e-002
 -6.0973173e-002 -8.8010876e-002
 -6.9491526e-002 -9.2189631e-002
 -7.1563089e-002 -9.0924660e-002
 -6.6397989e-002 -8.1677401e-002
 -5.5375398e-002 -6.6275357e-002
 -4.1500492e-002 -4.9987487e-002
 -2.8689040e-002 -3.8396619e-002
 -2.0817526e-002 -3.4336198e-002
 -2.0314428e-002 -3.6701495e-002
 -2.6979155e-002 -4.1863274e-002
 -3.7528803e-002 -4.6038984e-002
 -4.6746589e-002 -4.7261758e-002
 -4.9915163e-002 -4.5674126e-002
 -4.5370738e-002 -4.2720678e-002
 -3.5841983e-002 -4.0091281e-002
 -2.7230674e-002 -3.9127155e-002
 -2.5251545e-002 -4.0565603e-002
 -3.2119279e-002 -4.4239403e-002
 -4.5013439e-002 -4.8632468e-002
 -5.7742884e-002 -5.1326133e-002
 -6.4593630e-002 -5.0238313e-002
 -6.3771333e-002 -4.5282973e-002
 -5.8286321e-002 -3.9318265e-002
 -5.3549454e-002 -3.6913409e-002
 -5.3624066e-002 -4.1485535e-002
 -5.8474315e-002 -5.2435170e-002
 -6.4472500e-002 -6.4704512e-002
 -6.7299057e-002 -7.1546563e-002
 -6.5065923e-002 -6.8907959e-002
 -5.9280048e-002 -5.8359828e-002
 -5.3146555e-002 -4.6242893e-002
 -4.8939511e-002 -3.9520943e-002
 -4.6586420e-002 -4.1206034e-002
 -4.4680220e-002 -4.8729496e-002
 -4.2902257e-002 -5.6483599e-002
 -4.3227751e-002 -6.0289674e-002
 -4.8575896e-002 -6.0343314e-002
 -5.9636068e-002 -6.0252704e-002
 -7.2680610e-002 -6.3056653e-002
 -8.0794607e-002 -6.7788636e-002
 -7.8248388e-002 -6.9679061e-002
 -6.5193741e-002 -6.4167964e-002
 -4.8673499e-002 -5.1416071e-002
 -3.8774263e-002 -3.7566606e-002
 -4.1913643e-002 -3.1033967e-002
 -5.6081417e-002 -3.6478825e-002
 -7.1666416e-002 -5.0848424e-002
 -7.7834099e-002 -6.5014804e-002
 -6.9815853e-002 -6.9817823e-002
 -5.2243109e-002 -6.2360177e-002
 -3.6068433e-002 -4.7809841e-002
 -3.1285507e-002 -3.5577877e-002
 -4.0629985e-002 -3.2783260e-002
 -5.8388853e-002 -3.9850629e-002
 -7.4899127e-002 -5.1227033e-002
 -8.2762789e-002 -6.0006262e-002
 -8.0424101e-002 -6.2604375e-002
 -7.1189002e-002 -5.9957676e-002
 -5.9427391e-002 -5.5094914e-002
 -4.7817757e-002 -4.9929931e-002
 -3.7492227e-002 -4.4357672e-002
 -3.0218876e-002 -3.8142398e-002
 -2.9504020e-002 -3.3223970e-002
 -3.8423136e-002 -3.3237349e-002
 -5.5750118e-002 -3.9939092e-002
 -7.4150766e-002 -4.9639874e-002
 -8.3504772e-002 -5.3401337e-002
 -7.7652989e-002 -4.2419731e-002
 -5.9850629e-002 -1.5104744e-002
 -4.1733533e-002  1.9898810e-002
 -3.5526691e-002  4.7990871e-002
 -4.4508409e-002  5.8108973e-002
 -5.9524732e-002  5.0443610e-002
 -6.5057215e-002  3.6120800e-002
 -5.1244024e-002  2.8583044e-002
 -2.2812561e-002  3.2866013e-002
  2.5160015e-003  4.1302425e-002
  6.2790929e-003  3.9563035e-002
 -1.6731284e-002  1.8574875e-002
 -5.3387485e-002 -1.7097050e-002
 -8.0904485e-002 -5.1637633e-002
 -8.3468983e-002 -6.9908450e-002
 -6.4340969e-002 -6.9329233e-002
 -4.3397006e-002 -6.1763264e-002
 -4.1415969e-002 -6.3062147e-002
 -6.2611332e-002 -7.8250292e-002
 -9.0167435e-002 -9.5432807e-002
 -9.9321125e-002 -9.5107569e-002
 -7.9130535e-002 -6.9396469e-002
 -4.5352723e-002 -3.5320451e-002
 -3.2110515e-002 -2.8648338e-002
 -6.5396623e-002 -7.8371616e-002
 -1.3666184e-001 -1.7790083e-001
 -1.9805135e-001 -2.7549738e-001
 -1.8725606e-001 -2.9589823e-001
 -6.9338745e-002 -1.8435472e-001
  1.3165011e-001  5.3321087e-002
  3.3463671e-001  3.4202569e-001
  4.3996707e-001  5.6933912e-001
  3.8343682e-001  6.4192090e-001
  1.7359671e-001  5.3369857e-001
 -1.1065631e-001  2.9752051e-001
 -3.6083182e-001  3.4345627e-002
 -4.9352607e-001 -1.6042539e-001
 -4.8716939e-001 -2.4126101e-001
 -3.8194937e-001 -2.2373592e-001
 -2.4773225e-001 -1.6124057e-001
 -1.4274748e-001 -1.0649864e-001
 -8.8320647e-002 -8.3570775e-002
 -7.0770471e-002 -8.4752636e-002
 -6.2950859e-002 -8.8271061e-002
 -4.7195052e-002 -7.9975033e-002
 -2.4270275e-002 -6.2909707e-002
 -5.9271828e-003 -5.0605372e-002
 -9.0991824e-004 -5.2786388e-002
 -6.5528331e-003 -6.6218508e-002
 -1.1703893e-002 -7.7617560e-002
 -6.6989317e-003 -7.4895218e-002
  8.7099482e-003 -5.6895998e-002
  2.6056238e-002 -3.3851674e-002
  3.5922443e-002 -1.9018500e-002
  3.5808540e-002 -1.8829206e-002
  3.1636261e-002 -2.9218705e-002
  3.2153048e-002 -4.0203813e-002
  4.1391472e-002 -4.4137327e-002
  5.5668275e-002 -4.0558148e-002
  6.7042588e-002 -3.4448545e-002
  7.0067780e-002 -3.0359205e-002
  6.6021606e-002 -2.8141461e-002
  6.1265955e-002 -2.3973872e-002
  6.1724608e-002 -1.5174636e-002
  6.8275000e-002 -3.9833208e-003
  7.7172946e-002  3.6900923e-003
  8.4531397e-002  3.5885253e-003
  9.0644909e-002 -2.2054246e-003
  9.9957870e-002 -5.8179876e-003
  1.1656397e-001  3.5557108e-004
  1.3913096e-001  1.6925333e-002
  1.5997955e-001  3.5749619e-002
  1.6996890e-001  4.5393875e-002
  1.6572556e-001  3.9938764e-002
  1.5351927e-001  2.4196880e-002
  1.4622640e-001  1.1061363e-002
  1.5488994e-001  1.2347915e-002
  1.8109461e-001  2.9913342e-002
  2.1547108e-001  5.3833903e-002
  2.4373741e-001  6.9234358e-002
  2.5590098e-001  6.6749501e-002
  2.5246751e-001  4.9118268e-002
  2.4323202e-001  2.9018795e-002
  2.4009143e-001  1.9967586e-002
  2.4881174e-001  2.6997132e-002
  2.6558543e-001  4.3781266e-002
  2.7992688e-001  5.7679376e-002
  2.8159775e-001  5.8911739e-002
  2.6645386e-001  4.6751262e-002
  2.3809193e-001  2.8940621e-002
  2.0477793e-001  1.5235498e-002
  1.7457393e-001  1.0518834e-002
  1.5162234e-001  1.2248090e-002
  1.3535260e-001  1.3469733e-002
  1.2192535e-001  8.4551249e-003
  1.0654058e-001 -3.5888247e-003
  8.5439461e-002 -1.9053114e-002
  5.7415586e-002 -3.3507965e-002
  2.4628272e-002 -4.5146676e-002
 -7.5266134e-003 -5.5342159e-002
 -3.2194898e-002 -6.6364044e-002
 -4.4043430e-002 -7.8673426e-002
 -4.2176279e-002 -9.0099367e-002
 -3.1191873e-002 -9.7503696e-002
 -1.9122390e-002 -9.9154769e-002
 -1.3216023e-002 -9.6213181e-002
 -1.6096790e-002 -9.1889948e-002
 -2.5025481e-002 -8.9349826e-002
 -3.4387504e-002 -8.9919921e-002
 -3.9713411e-002 -9.2805459e-002
 -4.0156403e-002 -9.6087740e-002
 -3.7888488e-002 -9.7983550e-002
 -3.5202481e-002 -9.7327022e-002
 -3.2167257e-002 -9.3589802e-002
 -2.6780437e-002 -8.6873996e-002
 -1.7643316e-002 -7.8286938e-002
 -6.5449123e-003 -7.0084333e-002
  1.7237310e-003 -6.5024568e-002
  2.6434383e-003 -6.4717947e-002
 -4.1342251e-003 -6.8192684e-002
 -1.3597247e-002 -7.2026879e-002
 -1.8458768e-002 -7.2448435e-002
 -1.4518678e-002 -6.8208511e-002
 -4.2292420e-003 -6.1875901e-002
  4.5014998e-003 -5.8307164e-002
  3.9694412e-003 -6.1010528e-002
 -7.2364281e-003 -6.9056081e-002
 -2.2556522e-002 -7.7156808e-002
 -3.1585053e-002 -7.9233588e-002
 -2.7313269e-002 -7.3009456e-002
 -1.1439536e-002 -6.2261970e-002
  6.5427518e-003 -5.4525786e-002
  1.5550991e-002 -5.5962733e-002
  1.0366053e-002 -6.6726608e-002
 -5.0321665e-003 -8.0598378e-002
 -2.0524120e-002 -8.9081144e-002
 -2.7038813e-002 -8.7302908e-002
 -2.2516727e-002 -7.7362668e-002
 -1.2713542e-002 -6.6802979e-002
 -6.7467374e-003 -6.3372909e-002
 -1.0658533e-002 -6.9834239e-002
 -2.3448490e-002 -8.2340715e-002
 -3.8189195e-002 -9.3356057e-002
 -4.6713353e-002 -9.6688071e-002
 -4.4550279e-002 -9.1185767e-002
 -3.3073687e-002 -8.0866033e-002
 -1.7981657e-002 -7.1944658e-002
 -5.8710280e-003 -6.9173641e-002
 -1.1689938e-003 -7.3683780e-002
 -4.7772580e-003 -8.3198913e-002
 -1.4436995e-002 -9.3705928e-002
 -2.6136283e-002 -1.0123551e-001
 -3.5804704e-002 -1.0300387e-001
 -4.0823067e-002 -9.8395717e-002
 -4.1053248e-002 -8.9473709e-002
 -3.8933488e-002 -8.0601101e-002
 -3.7958462e-002 -7.6704217e-002
 -4.0261819e-002 -8.0513960e-002
 -4.4721812e-002 -9.0265310e-002
 -4.7222217e-002 -9.9985388e-002
 -4.3701985e-002 -1.0284519e-001
 -3.3715414e-002 -9.5872669e-002
 -2.2001907e-002 -8.2717039e-002
 -1.6075943e-002 -7.1884843e-002
 -2.0986193e-002 -7.1203648e-002
 -3.4825502e-002 -8.2083365e-002
 -4.8904142e-002 -9.8068462e-002
 -5.3164713e-002 -1.0904331e-001
 -4.3491565e-002 -1.0826783e-001
 -2.5292809e-002 -9.6934224e-002
 -1.0413174e-002 -8.2755653e-002
 -8.9282309e-003 -7.3408253e-002
 -2.1844080e-002 -7.0218913e-002
 -4.0062591e-002 -6.7158415e-002
 -5.0805681e-002 -5.6148647e-002
 -4.6835290e-002 -3.4511105e-002
 -3.1410988e-002 -8.1550297e-003
 -1.5112035e-002  1.2481245e-002
 -7.2245684e-003  2.0651756e-002
 -8.4759679e-003  1.8902826e-002
 -1.1111129e-002  1.6762971e-002
 -6.4877292e-003  2.1794189e-002
  6.3887360e-003  3.1375844e-002
  1.8493376e-002  3.2858991e-002
  1.7432224e-002  1.3190745e-002
 -1.8307288e-003 -2.8808210e-002
 -3.1362282e-002 -7.8003108e-002
 -5.4904743e-002 -1.1144992e-001
 -6.0058320e-002 -1.1487458e-001
 -4.8364539e-002 -9.4625517e-002
 -3.4452178e-002 -7.4458085e-002
 -3.3964790e-002 -7.7865316e-002
 -4.9583011e-002 -1.0851189e-001
 -6.7209260e-002 -1.4494932e-001
 -6.7103606e-002 -1.5603486e-001
 -4.2638557e-002 -1.2751860e-001
 -1.1156714e-002 -7.9271724e-002
 -5.0977707e-003 -5.6722520e-002
 -4.6660971e-002 -9.8082408e-002
 -1.2306314e-001 -1.9828597e-001
 -1.8314892e-001 -2.9723138e-001
 -1.6350092e-001 -3.0649098e-001
 -3.1067482e-002 -1.6276231e-001
  1.8500272e-001  1.2438957e-001
  3.9637629e-001  4.6319022e-001
  4.9707533e-001  7.1942627e-001
  4.2146901e-001  7.8497109e-001
  1.8401827e-001  6.3506816e-001
 -1.2441852e-001  3.4037228e-001
 -3.8277835e-001  2.6908902e-002
 -5.0137204e-001 -1.9096992e-001
 -4.6303285e-001 -2.6456396e-001
 -3.2172279e-001 -2.2232984e-001
 -1.6326531e-001 -1.3748932e-001
 -5.5355087e-002 -7.7182227e-002
 -1.7293878e-002 -6.6513012e-002
 -2.3909747e-002 -8.6637251e-002
 -3.4608273e-002 -1.0133202e-001
 -2.4448062e-002 -8.8863226e-002
  3.5268452e-003 -5.6083660e-002
  2.8754583e-002 -2.8036925e-002
  3.4561913e-002 -2.4758623e-002
  2.2250048e-002 -4.4916719e-002
  8.3467869e-003 -6.8093810e-002
  9.4509678e-003 -7.2243512e-002
  2.8245895e-002 -5.1375660e-002
  5.1941474e-002 -1.9612959e-002
  6.3420839e-002  6.7655270e-004
  5.5442279e-002 -3.3803768e-003
  3.6345415e-002 -2.5608345e-002
  2.3085837e-002 -4.6165141e-002
  2.7676718e-002 -4.7024381e-002
  4.7889776e-002 -2.5228106e-002
  6.9532787e-002  5.8825365e-003
  7.7833598e-002  2.7534060e-002
  6.8801200e-002  2.9561104e-002
  5.1872552e-002  1.6917089e-002
  4.2197945e-002  4.3683221e-003
  4.9023134e-002  4.4429443e-003
  6.9303832e-002  1.8255292e-002
  9.1133389e-002  3.6061296e-002
  1.0358602e-001  4.6040128e-002
  1.0496286e-001  4.4036622e-002
  1.0303366e-001  3.6340200e-002
  1.0772664e-001  3.4116421e-002
  1.2271229e-001  4.4139557e-002
  1.4260768e-001  6.3535419e-002
  1.5792369e-001  8.2310810e-002
  1.6332021e-001  9.1269656e-002
  1.6234207e-001  8.8878384e-002
  1.6460621e-001  8.1848647e-002
  1.7773356e-001  7.9435099e-002
  2.0060563e-001  8.6295683e-002
  2.2339577e-001  9.9400532e-002
  2.3452402e-001  1.1102490e-001
  2.2919508e-001  1.1486602e-001
  2.1291832e-001  1.1033890e-001
  1.9754826e-001  1.0203427e-001
  1.9289215e-001  9.5415160e-002
  2.0000052e-001  9.2654079e-002
  2.1121167e-001  9.2131669e-002
  2.1620467e-001  9.1206680e-002
  2.0923537e-001  8.9388444e-002
  1.9229463e-001  8.8797100e-002
  1.7208013e-001  9.1286611e-002
  1.5411848e-001  9.5207692e-002
  1.3876150e-001  9.4995244e-002
  1.2203651e-001  8.4713010e-002
  1.0022010e-001  6.3016185e-002
  7.4048756e-002  3.5440078e-002
  4.8949176e-002  1.1707261e-002
  3.1071180e-002 -3.9420168e-004
  2.2605569e-002 -8.2027349e-005
  2.0069408e-002  6.0875626e-003
  1.6857116e-002  9.0131797e-003
  8.0871852e-003  3.4367705e-003
 -6.2379338e-003 -8.8772200e-003
 -2.1850902e-002 -2.1313180e-002
 -3.3887393e-002 -2.7968677e-002
 -4.0480603e-002 -2.8116800e-002
 -4.3363806e-002 -2.6214169e-002
 -4.5541637e-002 -2.7628518e-002
 -4.8106256e-002 -3.3726255e-002
 -4.9284247e-002 -4.0410961e-002
 -4.6465941e-002 -4.1399726e-002
 -3.9323870e-002 -3.3589610e-002
 -3.1175057e-002 -2.0128149e-002
 -2.7231444e-002 -8.6979210e-003
 -3.1001782e-002 -6.1069588e-003
 -4.1445292e-002 -1.3217292e-002
 -5.3352256e-002 -2.4122424e-002
 -6.0518184e-002 -3.0026957e-002
 -5.9416094e-002 -2.5166795e-002
 -5.0643138e-002 -1.0382753e-002
 -3.7498671e-002  7.8688957e-003
 -2.3323251e-002  2.2074959e-002
 -1.0078917e-002  2.8185925e-002
  1.1728043e-003  2.7150730e-002
  8.6442595e-003  2.2862111e-002
  9.5301104e-003  1.8759203e-002
  1.9078457e-003  1.5784435e-002
 -1.2496476e-002  1.2908594e-002
 -2.7354655e-002  9.1530618e-003
 -3.4569011e-002  4.9768007e-003
 -2.9519826e-002  1.8284994e-003
 -1.5052664e-002  5.5625050e-004
 -8.3855271e-004  4.2642350e-004
  2.3665609e-003 -8.9538193e-005
 -9.9739810e-003 -1.4906668e-003
 -3.2278999e-002 -2.1308826e-003
 -5.1715564e-002  6.8410632e-004
 -5.5990723e-002  8.2352093e-003
 -4.1400407e-002  1.8419842e-002
 -1.5287023e-002  2.6392756e-002
  8.5487627e-003  2.7686974e-002
  1.8449193e-002  2.1617232e-002
  1.1745865e-002  1.2207286e-002
 -4.4778361e-003  5.6650662e-003
 -1.8791901e-002  5.9913677e-003
 -2.3118607e-002  1.2071494e-002
 -1.7302629e-002  1.8427773e-002
 -8.0753292e-003  1.9189060e-002
 -3.6645633e-003  1.2383282e-002
 -8.2729714e-003  1.2110538e-003
 -1.9890457e-002 -8.1924068e-003
 -3.2296001e-002 -1.1072448e-002
 -3.9144857e-002 -7.0438101e-003
 -3.7541827e-002  3.8768740e-004
 -2.8898653e-002  6.8757601e-003
 -1.7452546e-002  1.0366571e-002
 -8.0487448e-003  1.1674638e-002
 -4.3216463e-003  1.2704265e-002
 -7.6524856e-003  1.4186000e-002
 -1.6700126e-002  1.5136419e-002
 -2.7544065e-002  1.4203714e-002
 -3.4960540e-002  1.1470411e-002
 -3.4913884e-002  8.7801315e-003
 -2.7138531e-002  7.8217569e-003
 -1.6013105e-002  7.8477756e-003
 -8.6331019e-003  5.5840602e-003
 -1.0329996e-002 -1.9089630e-003
 -2.0578984e-002 -1.3516726e-002
 -3.2696717e-002 -2.2914893e-002
 -3.8015734e-002 -2.1968000e-002
 -3.2311753e-002 -6.9281381e-003
 -1.9589877e-002  1.7256423e-002
 -9.9942410e-003  3.8529301e-002
 -1.2953803e-002  4.4880711e-002
 -2.9885010e-002  3.2658960e-002
 -5.2400622e-002  9.5744688e-003
 -6.7550211e-002 -1.0203447e-002
 -6.6820661e-002 -1.5778037e-002
 -5.2133107e-002 -6.9194311e-003
 -3.4380574e-002  6.3087192e-003
 -2.5343322e-002  1.1613089e-002
 -2.8980217e-002  4.2363385e-003
 -3.9004495e-002 -9.4939574e-003
 -4.4509983e-002 -1.7475814e-002
 -3.9347003e-002 -1.2062810e-002
 -2.7797673e-002  3.0354726e-003
 -2.1556178e-002  1.5062056e-002
 -3.0153443e-002  1.2208272e-002
 -5.2282582e-002 -6.3822415e-003
 -7.5293238e-002 -2.8950309e-002
 -8.3953984e-002 -3.9545223e-002
 -7.1975752e-002 -3.0343853e-002
 -4.7309813e-002 -7.9619705e-003
 -2.6755349e-002  1.1543490e-002
 -2.3494719e-002  1.5656023e-002
 -3.7007928e-002  6.0792902e-003
 -5.3465786e-002 -1.7641520e-003
 -5.6596925e-002  9.3540780e-003
 -4.0727324e-002  4.3976356e-002
 -1.5681619e-002  8.8579124e-002
  7.5703692e-004  1.2035844e-001
 -2.9840625e-003  1.2398070e-001
 -2.2566865e-002  1.0338363e-001
 -4.0462271e-002  7.9062737e-002
 -3.9600155e-002  7.2158617e-002
 -1.7460525e-002  8.7472186e-002
  1.0767503e-002  1.0890800e-001
  2.3187436e-002  1.1164867e-001
  7.9881332e-003  8.2016924e-002
 -2.7039188e-002  2.9535228e-002
 -6.0067418e-002 -1.9007936e-002
 -7.2115041e-002 -3.9591963e-002
 -6.1788731e-002 -2.9467520e-002
 -4.5905717e-002 -9.1110264e-003
 -4.4991381e-002 -5.1270365e-003
 -6.4963063e-002 -2.7214799e-002
 -9.0549983e-002 -5.8423597e-002
 -9.7557666e-002 -6.8450015e-002
 -7.5110473e-002 -4.1268325e-002
 -3.9786406e-002  4.9540969e-003
 -2.7502332e-002  2.4617566e-002
 -6.5602015e-002 -2.1987789e-002
 -1.4441058e-001 -1.3057136e-001
 -2.1150612e-001 -2.3949301e-001
 -1.9834531e-001 -2.5672067e-001
 -6.6125131e-002 -1.1538384e-001
  1.5890626e-001  1.7619121e-001
  3.8673109e-001  5.2439503e-001
  5.0587593e-001  7.9122957e-001
  4.4401133e-001  8.6493426e-001
  2.1057606e-001  7.1879121e-001
 -1.0489570e-001  4.2329443e-001
 -3.7864689e-001  1.0524408e-001
 -5.1557912e-001 -1.2013730e-001
 -4.9254874e-001 -2.0336023e-001
 -3.5919835e-001 -1.7174821e-001
 -2.0032149e-001 -9.6929474e-002
 -8.6288334e-002 -4.4587483e-002
 -4.1341719e-002 -3.9360277e-002
 -4.4987975e-002 -6.3356857e-002
 -5.8728961e-002 -8.2037606e-002
 -5.6356382e-002 -7.4696812e-002
 -3.7558379e-002 -4.7602077e-002
 -1.9663393e-002 -2.3959205e-002
 -1.8197290e-002 -2.2270146e-002
 -3.2688168e-002 -4.1297667e-002
 -4.7821121e-002 -6.2427694e-002
 -4.6733597e-002 -6.5633325e-002
 -2.4860081e-002 -4.5271409e-002
  6.4093838e-003 -1.3738559e-002
  2.8465983e-002  8.9168968e-003
  2.9156292e-002  1.0227213e-002
  1.0976419e-002 -6.4876588e-003
 -1.1548646e-002 -2.6222667e-002
 -2.2449395e-002 -3.4436099e-002
 -1.4747588e-002 -2.7229583e-002
  6.3685731e-003 -1.2240480e-002
  2.8764552e-002 -8.6520960e-004
  4.1983459e-002  1.1667980e-003
  4.3281594e-002 -2.7120133e-003
  3.7406530e-002 -4.2663569e-003
  3.1833655e-002  1.7490075e-003
  3.1700906e-002  1.3251347e-002
  3.7984136e-002  2.3199483e-002
  4.9075469e-002  2.6270386e-002
  6.3359893e-002  2.3777888e-002
  8.0239322e-002  2.2693602e-002
  9.9234478e-002  2.9719211e-002
  1.1845936e-001  4.5253798e-002
  1.3443586e-001  6.2433969e-002
  1.4378587e-001  7.2053540e-002
  1.4564628e-001  6.9494822e-002
  1.4273483e-001  5.8249139e-002
  1.4010937e-001  4.7344429e-002
  1.4255295e-001  4.4842771e-002
  1.5210355e-001  5.2226631e-002
  1.6728593e-001  6.3869298e-002
  1.8419154e-001  7.1567961e-002
  1.9853223e-001  7.0635019e-002
  2.0766281e-001  6.2983239e-002
  2.1134971e-001  5.5286962e-002
  2.1161989e-001  5.4034352e-002
  2.1152647e-001  6.1201199e-002
  2.1344412e-001  7.3391738e-002
  2.1742988e-001  8.4544879e-002
  2.2051391e-001  8.9863207e-002
  2.1756208e-001  8.8066202e-002
  2.0390758e-001  8.1038630e-002
  1.7834171e-001  7.1630432e-002
  1.4466927e-001  6.1651751e-002
  1.1040820e-001  5.1268258e-002
  8.3029240e-002  3.9738503e-002
  6.5944846e-002  2.6574778e-002
  5.6761536e-002  1.2085146e-002
  4.9259372e-002 -2.7119461e-003
  3.7775023e-002 -1.6597614e-002
  2.0924474e-002 -2.8577100e-002
  2.0847883e-003 -3.8171017e-002
 -1.3522348e-002 -4.5634435e-002
 -2.2790547e-002 -5.1995494e-002
 -2.6663718e-002 -5.8625808e-002
 -2.8772163e-002 -6.6305559e-002
 -3.1840095e-002 -7.4287650e-002
 -3.5347142e-002 -8.0219148e-002
 -3.6210660e-002 -8.1444848e-002
 -3.2187955e-002 -7.7036358e-002
 -2.4775096e-002 -6.9033668e-002
 -1.8955767e-002 -6.1682504e-002
 -1.9492519e-002 -5.8698602e-002
 -2.6664523e-002 -6.0503245e-002
 -3.5131046e-002 -6.3496398e-002
 -3.7336851e-002 -6.2459969e-002
 -2.9374488e-002 -5.4602722e-002
 -1.4763677e-002 -4.2280940e-002
 -2.8727099e-003 -3.2092532e-002
 -2.6656562e-003 -3.0552241e-002
 -1.5992662e-002 -3.9282507e-002
 -3.5720299e-002 -5.3352633e-002
 -5.0091865e-002 -6.4188894e-002
 -5.0453494e-002 -6.5242801e-002
 -3.6907988e-002 -5.6411903e-002
 -1.7804470e-002 -4.4028905e-002
 -3.6485470e-003 -3.6284993e-002
 -1.3544552e-004 -3.7624695e-002
 -5.1021481e-003 -4.5978787e-002
 -1.1623635e-002 -5.4849987e-002
 -1.4094815e-002 -5.8434644e-002
 -1.2398946e-002 -5.5814313e-002
 -1.1063349e-002 -5.1168156e-002
 -1.4352059e-002 -4.9943766e-002
 -2.1617623e-002 -5.4240825e-002
 -2.6987182e-002 -6.1181449e-002
 -2.3953344e-002 -6.5366313e-002
 -1.1190956e-002 -6.3468431e-002
  5.1458739e-003 -5.7513384e-002
  1.4944205e-002 -5.3776871e-002
  1.1082141e-002 -5.8182304e-002
 -5.0942104e-003 -7.1633147e-002
 -2.4202221e-002 -8.8754014e-002
 -3.4873620e-002 -1.0113379e-001
 -3.1401754e-002 -1.0280425e-001
 -1.7642135e-002 -9.4193453e-002
 -4.4713601e-003 -8.1774256e-002
 -2.7350523e-003 -7.4024199e-002
 -1.6352956e-002 -7.6281550e-002
 -4.0157688e-002 -8.7927629e-002
 -6.3272161e-002 -1.0319886e-001
 -7.5498580e-002 -1.1476322e-001
 -7.2505223e-002 -1.1753835e-001
 -5.7234992e-002 -1.1076364e-001
 -3.7279552e-002 -9.7646132e-002
 -2.0506327e-002 -8.3396061e-002
 -1.1658511e-002 -7.2924045e-002
 -1.1094618e-002 -6.9026069e-002
 -1.5747859e-002 -7.1577643e-002
 -2.1184668e-002 -7.7855000e-002
 -2.3786964e-002 -8.3848027e-002
 -2.2485257e-002 -8.6274838e-002
 -1.9272125e-002 -8.4330794e-002
 -1.8250134e-002 -8.0095748e-002
 -2.3261100e-002 -7.7160850e-002
 -3.5300901e-002 -7.8059796e-002
 -5.1215674e-002 -8.2158162e-002
 -6.4914457e-002 -8.5844166e-002
 -7.0778274e-002 -8.5072493e-002
 -6.7265348e-002 -7.8602114e-002
 -5.7976206e-002 -6.9321195e-002
 -4.9196325e-002 -6.2724564e-002
 -4.5551091e-002 -6.3123807e-002
 -4.6963493e-002 -7.0316773e-002
 -4.9030415e-002 -7.9461323e-002
 -4.6984091e-002 -8.4358265e-002
 -3.9880235e-002 -8.1829649e-002
 -3.1796599e-002 -7.3930508e-002
 -2.8736268e-002 -6.6306544e-002
 -3.3475265e-002 -6.3850802e-002
 -4.2759068e-002 -6.7144426e-002
 -4.9213432e-002 -7.2356728e-002
 -4.6964673e-002 -7.4645317e-002
 -3.6690968e-002 -7.2240010e-002
 -2.5798988e-002 -6.7820294e-002
 -2.3287769e-002 -6.6115916e-002
 -3.2790929e-002 -6.9653058e-002
 -4.9312696e-002 -7.6299352e-002
 -6.2199950e-002 -8.0672665e-002
 -6.2722468e-002 -7.8431487e-002
 -5.0407406e-002 -6.9979151e-002
 -3.3389484e-002 -6.0387237e-002
 -2.2514139e-002 -5.5594364e-002
 -2.3622243e-002 -5.7844747e-002
 -3.3816205e-002 -6.4136026e-002
 -4.4397410e-002 -6.8959439e-002
 -4.7806046e-002 -6.8998461e-002
 -4.3275119e-002 -6.5924555e-002
 -3.6435894e-002 -6.4753759e-002
 -3.3884496e-002 -6.9147201e-002
 -3.7076639e-002 -7.7594795e-002
 -4.1112496e-002 -8.3974498e-002
 -3.9331209e-002 -8.2311012e-002
 -2.9856737e-002 -7.1953846e-002
 -1.8548548e-002 -5.8834564e-002
 -1.5244691e-002 -5.1300663e-002
 -2.6131818e-002 -5.3791242e-002
 -4.7994326e-002 -6.3172343e-002
 -6.9511358e-002 -7.1086130e-002
 -7.8845181e-002 -7.0462459e-002
 -7.2073558e-002 -6.1177378e-002
 -5.5982573e-002 -5.0271433e-002
 -4.3127260e-002 -4.6370413e-002
 -4.2713223e-002 -5.2689717e-002
 -5.4250783e-002 -6.4260078e-002
 -6.8392339e-002 -7.1561163e-002
 -7.4017538e-002 -6.7724698e-002
 -6.6143826e-002 -5.3586875e-002
 -4.8587234e-002 -3.6563020e-002
 -3.0344195e-002 -2.4501576e-002
 -1.8921929e-002 -1.9628550e-002
 -1.6132745e-002 -1.7554971e-002
 -1.8932861e-002 -1.1877486e-002
 -2.3257026e-002 -1.8256467e-004
 -2.7091620e-002  1.3899236e-002
 -2.9962754e-002  2.4410017e-002
 -3.0388457e-002  2.9075205e-002
 -2.4830596e-002  3.1873792e-002
 -1.0458289e-002  3.9235960e-002
  1.0263201e-002  5.2874839e-002
  2.8096413e-002  6.5731547e-002
  3.1614701e-002  6.5801102e-002
  1.5679320e-002  4.5718782e-002
 -1.2966788e-002  1.0440359e-002
 -3.8671923e-002 -2.4222797e-002
 -4.7777098e-002 -4.2585863e-002
 -3.9589435e-002 -4.1579018e-002
 -2.8012468e-002 -3.4024162e-002
 -3.0694177e-002 -3.8494388e-002
 -5.3212850e-002 -6.2640969e-002
 -8.1158097e-002 -9.3558568e-002
 -8.8998757e-002 -1.0530143e-001
 -6.1369362e-002 -8.0468679e-002
 -1.1070655e-002 -3.0019178e-002
  2.3039042e-002  6.5021230e-003
  1.4453423e-003 -1.4322125e-002
 -8.1925733e-002 -1.0382010e-001
 -1.8241244e-001 -2.1971473e-001
 -2.2153045e-001 -2.7881181e-001
 -1.3382494e-001 -2.0240362e-001
  8.4307351e-002  3.1187745e-002
  3.5690663e-001  3.6077465e-001
  5.5913861e-001  6.6375645e-001
  5.8241589e-001  8.1599253e-001
  3.9666020e-001  7.5660132e-001
  7.1161751e-002  5.1927341e-001
 -2.6001025e-001  2.1186387e-001
 -4.6836384e-001 -4.2659319e-002
 -4.9533015e-001 -1.6807952e-001
 -3.7365189e-001 -1.6428324e-001
 -1.9683502e-001 -9.1084075e-002
 -5.9485376e-002 -2.2130097e-002
 -7.0753468e-003 -7.3786303e-004
 -2.3281041e-002 -2.3494969e-002
 -5.6446588e-002 -5.6384540e-002
 -6.1852148e-002 -6.6585838e-002
 -2.9831885e-002 -4.5803195e-002
  1.6235096e-002 -1.1092527e-002
  4.4761550e-002  1.2824369e-002
  4.2005219e-002  1.3560921e-002
  2.0180300e-002 -1.6631332e-003
  4.2910159e-003 -1.4939128e-002
  1.0819835e-002 -1.3236205e-002
  3.5589409e-002  2.2885891e-003
  5.9280437e-002  1.9563648e-002
  6.4508235e-002  2.7130826e-002
  4.9929306e-002  2.3522552e-002
  3.0283565e-002  1.7092822e-002
  2.3459774e-002  1.7460032e-002
  3.5998268e-002  2.6674827e-002
  5.8499834e-002  3.7769636e-002
  7.4175222e-002  4.1538750e-002
  7.3136759e-002  3.5499662e-002
  6.0405425e-002  2.6946982e-002
  5.1580138e-002  2.7279092e-002
  5.9822835e-002  4.2251476e-002
  8.4931325e-002  6.6291444e-002
  1.1315482e-001  8.5790075e-002
  1.2784694e-001  8.9186039e-002
  1.2234400e-001  7.5902942e-002
  1.0508133e-001  5.7171810e-002
  9.3193552e-002  4.7937982e-002
  9.9635587e-002  5.5956954e-002
  1.2387254e-001  7.6443101e-002
  1.5283640e-001  9.6019207e-002
  1.7097202e-001  1.0275843e-001
  1.7138250e-001  9.4664430e-002
  1.5981087e-001  8.0357966e-002
  1.4914465e-001  7.2063897e-002
  1.4963587e-001  7.6547966e-002
  1.6235995e-001  9.0928963e-002
  1.8047626e-001  1.0598646e-001
  1.9618747e-001  1.1379389e-001
  2.0713982e-001  1.1338565e-001
  2.1695850e-001  1.1031827e-001
  2.3005354e-001  1.1117000e-001
  2.4568697e-001  1.1774319e-001
  2.5680688e-001  1.2569729e-001
  2.5504183e-001  1.2860783e-001
  2.3765661e-001  1.2362214e-001
  2.1076679e-001  1.1408832e-001
  1.8578757e-001  1.0699709e-001
  1.7151860e-001  1.0731503e-001
  1.6771059e-001  1.1376866e-001
  1.6518252e-001  1.1944252e-001
  1.5244991e-001  1.1658788e-001
  1.2400456e-001  1.0203579e-001
  8.4225263e-002  7.9233615e-002
  4.4316757e-002  5.5683602e-002
  1.5012395e-002  3.8043999e-002
  3.1191604e-004  2.8463584e-002
 -3.4942700e-003  2.4540321e-002
 -3.6491017e-003  2.2152270e-002
 -5.3246157e-003  1.8569742e-002
 -9.0790713e-003  1.3529959e-002
 -1.2701157e-002  8.0191822e-003
 -1.5163443e-002  2.4056762e-003
 -1.8791739e-002 -4.0997533e-003
 -2.7696169e-002 -1.2397690e-002
 -4.3753881e-002 -2.1932639e-002
 -6.3666741e-002 -3.0273677e-002
 -7.9745670e-002 -3.4462496e-002
 -8.4268701e-002 -3.2942322e-002
 -7.4523004e-002 -2.6537756e-002
 -5.4827742e-002 -1.7694817e-002
 -3.4117343e-002 -8.9736634e-003
 -2.0829556e-002 -1.7211534e-003
 -1.8420964e-002  3.9795173e-003
 -2.4072580e-002  8.4253467e-003
 -3.1238200e-002  1.1612749e-002
 -3.3593299e-002  1.3462044e-002
 -2.8236439e-002  1.4566564e-002
 -1.6463992e-002  1.6432900e-002
 -2.3870148e-003  2.0487353e-002
  9.3371815e-003  2.6549848e-002
  1.5253208e-002  3.2181480e-002
  1.4008094e-002  3.3974895e-002
  6.5226548e-003  3.0155826e-002
 -4.3971880e-003  2.2474760e-002
 -1.5031891e-002  1.5507298e-002
 -2.2101430e-002  1.3541825e-002
 -2.4140225e-002  1.7088603e-002
 -2.1945204e-002  2.1977029e-002
 -1.7962174e-002  2.2055585e-002
 -1.4634430e-002  1.3843433e-002
 -1.2986171e-002 -3.2771317e-004
 -1.2337545e-002 -1.3350531e-002
 -1.1425116e-002 -1.8110456e-002
 -9.9114820e-003 -1.2621303e-002
 -8.8513591e-003 -1.7772609e-003
 -9.8437808e-003  5.8819993e-003
 -1.3253683e-002  4.0654147e-003
 -1.7413558e-002 -6.9793877e-003
 -1.9351010e-002 -2.0781301e-002
 -1.6874662e-002 -2.9453381e-002
 -1.0355731e-002 -2.9122903e-002
 -2.7832990e-003 -2.2248542e-002
  2.2888279e-003 -1.5195774e-002
  3.0079770e-003 -1.3330941e-002
  1.6364945e-004 -1.7194663e-002
 -3.8266729e-003 -2.2895887e-002
 -6.9641484e-003 -2.5739887e-002
 -9.0234279e-003 -2.4016958e-002
 -1.0719145e-002 -1.9839804e-002
 -1.1888878e-002 -1.6739662e-002
 -1.0601468e-002 -1.6355386e-002
 -4.3595420e-003 -1.7190122e-002
  7.0090265e-003 -1.6492491e-002
  1.9453262e-002 -1.3511820e-002
  2.5993620e-002 -1.0882526e-002
  2.0960973e-002 -1.2808668e-002
  4.5473024e-003 -2.1212872e-002
 -1.5976361e-002 -3.3245338e-002
 -2.9959689e-002 -4.2510210e-002
 -2.9918247e-002 -4.3530024e-002
 -1.6648242e-002 -3.6069235e-002
  9.4906413e-004 -2.5766647e-002
  1.1563158e-002 -2.0310669e-002
  8.7500334e-003 -2.3892101e-002
 -5.2136873e-003 -3.4192636e-002
 -2.1472848e-002 -4.4150513e-002
 -3.1099762e-002 -4.7422442e-002
 -3.1060430e-002 -4.3114617e-002
 -2.5628871e-002 -3.6309750e-002
 -2.2318217e-002 -3.3871575e-002
 -2.5774765e-002 -3.9010928e-002
 -3.4391779e-002 -4.8745381e-002
 -4.2096919e-002 -5.6338522e-002
 -4.3496172e-002 -5.6558958e-002
 -3.8397926e-002 -4.9826365e-002
 -3.1950927e-002 -4.1763842e-002
 -3.0594999e-002 -3.8786521e-002
 -3.6976183e-002 -4.3166776e-002
 -4.7823252e-002 -5.1420290e-002
 -5.6268787e-002 -5.7098698e-002
 -5.6823609e-002 -5.5746227e-002
 -4.9062534e-002 -4.8031673e-002
 -3.7541464e-002 -3.8857135e-002
 -2.8423668e-002 -3.3584486e-002
 -2.5573948e-002 -3.4353482e-002
 -2.8859486e-002 -3.9399081e-002
 -3.5457585e-002 -4.5353395e-002
 -4.2173701e-002 -5.0044180e-002
 -4.7053298e-002 -5.3436719e-002
 -4.8998910e-002 -5.6135053e-002
 -4.6952776e-002 -5.7427010e-002
 -4.0029590e-002 -5.5196489e-002
 -2.9069380e-002 -4.8247255e-002
 -1.7955811e-002 -3.8894802e-002
 -1.2765423e-002 -3.2999878e-002
 -1.8245155e-002 -3.6418717e-002
 -3.3988147e-002 -5.0155863e-002
 -5.3422918e-002 -6.8141403e-002
 -6.6981363e-002 -8.0114671e-002
 -6.7865583e-002 -7.8148102e-002
 -5.6510078e-002 -6.2324444e-002
 -4.0107206e-002 -4.1204200e-002
 -2.7368807e-002 -2.6349085e-002
 -2.2630030e-002 -2.4770439e-002
 -2.3526133e-002 -3.4661204e-002
 -2.4073632e-002 -4.7448592e-002
 -2.0370722e-002 -5.4337107e-002
 -1.4325681e-002 -5.2330222e-002
 -1.1974191e-002 -4.5109745e-002
 -1.7936407e-002 -3.8789062e-002
 -3.0567031e-002 -3.6169617e-002
 -4.2163222e-002 -3.4569720e-002
 -4.4617299e-002 -2.8643694e-002
 -3.5839741e-002 -1.5542731e-002
 -2.1800703e-002  2.2540834e-003
 -1.1840060e-002  1.9073904e-002
 -1.1017132e-002  3.1071876e-002
 -1.5636197e-002  3.9476015e-002
 -1.6042656e-002  4.8657695e-002
 -4.8786198e-003  6.0421017e-002
  1.5800989e-002  6.9817332e-002
  3.4786898e-002  6.7132536e-002
  3.9707909e-002  4.5543192e-002
  2.6629794e-002  8.5361577e-003
  3.4961504e-003 -2.9741126e-002
 -1.5908290e-002 -5.3107240e-002
 -2.2883206e-002 -5.5180605e-002
 -2.0535823e-002 -4.4945340e-002
 -2.0366604e-002 -4.0353110e-002
 -3.0811010e-002 -5.3639292e-002
 -4.7614464e-002 -7.9681023e-002
 -5.5245685e-002 -9.7951330e-002
 -4.0286987e-002 -8.8978711e-002
 -6.8791656e-003 -5.3924315e-002
  1.9901655e-002 -2.0893483e-002
  8.9889847e-003 -2.9313356e-002
 -5.0903247e-002 -9.9551327e-002
 -1.3331075e-001 -2.0813009e-001
 -1.8009304e-001 -2.8893460e-001
 -1.3339006e-001 -2.6545196e-001
  2.4114217e-002 -9.7773898e-002
  2.4685250e-001  1.8439087e-001
  4.4013284e-001  4.8595662e-001
  5.0609531e-001  6.8936769e-001
  3.9680235e-001  7.1332374e-001
  1.4302548e-001  5.5389912e-001
 -1.5913920e-001  2.8432335e-001
 -3.9658722e-001  1.4681209e-002
 -4.9444186e-001 -1.6404601e-001
 -4.4707525e-001 -2.1931714e-001
 -3.0999312e-001 -1.8032688e-001
 -1.6152183e-001 -1.0849572e-001
 -5.9759254e-002 -5.7216290e-002
 -1.9622658e-002 -4.5936353e-002
 -1.8976396e-002 -6.0531176e-002
 -2.4114527e-002 -7.3835701e-002
 -1.4694470e-002 -6.8678786e-002
  7.2103289e-003 -4.7829478e-002
  2.5959164e-002 -2.7073227e-002
  2.8792924e-002 -2.0068828e-002
  1.6420538e-002 -2.7631718e-002
  1.2937271e-003 -3.8604453e-002
 -2.9556076e-003 -3.9793616e-002
  8.3734020e-003 -2.6268146e-002
  2.8797940e-002 -4.2299592e-003
  4.6669047e-002  1.4520078e-002
  5.3816398e-002  2.1334292e-002
  5.0275977e-002  1.5930504e-002
  4.2352875e-002  4.9744174e-003
  3.7005830e-002 -3.5420360e-003
  3.7319630e-002 -5.2838274e-003
  4.1990795e-002 -7.1228645e-004
  4.7912717e-002  7.2876920e-003
  5.3004079e-002  1.6176295e-002
  5.6890981e-002  2.4580436e-002
  5.9591581e-002  3.1176572e-002
  6.0416666e-002  3.3856492e-002
  5.8428084e-002  3.0798864e-002
  5.4248408e-002  2.2885449e-002
  5.0889457e-002  1.4855987e-002
  5.2355873e-002  1.3400573e-002
  6.0634866e-002  2.2723423e-002
  7.3762282e-002  4.0906676e-002
  8.6815156e-002  6.0243471e-002
  9.5443562e-002  7.1907636e-002
  9.9349820e-002  7.1849641e-002
  1.0262074e-001  6.3674120e-002
  1.1054494e-001  5.6092815e-002
  1.2506503e-001  5.6703425e-002
  1.4271047e-001  6.6611580e-002
  1.5679073e-001  7.9908037e-002
  1.6246353e-001  8.8393157e-002
  1.6063373e-001  8.7817494e-002
  1.5771739e-001  8.1116779e-002
  1.6122214e-001  7.6032150e-002
  1.7417390e-001  7.9098880e-002
  1.9266017e-001  9.0508169e-002
  2.0807816e-001  1.0366883e-001
  2.1251100e-001  1.0978985e-001
  2.0324934e-001  1.0404877e-001
  1.8360774e-001  8.8956666e-002
  1.5986349e-001  7.2585007e-002
  1.3724485e-001  6.3164922e-002
  1.1749751e-001  6.3868330e-002
  9.9567888e-002  7.1272549e-002
  8.1839454e-002  7.8087521e-002
  6.3748249e-002  7.7876565e-002
  4.5565948e-002  6.8501507e-002
  2.7088887e-002  5.2385963e-002
  7.1543551e-003  3.4144801e-002
 -1.5060500e-002  1.7761669e-002
 -3.8215104e-002  4.9915827e-003
 -5.8293311e-002 -4.3597297e-003
 -7.0682318e-002 -1.1322598e-002
 -7.3477480e-002 -1.6931987e-002
 -6.9589125e-002 -2.2072777e-002
 -6.5362967e-002 -2.7451220e-002
 -6.6460651e-002 -3.3295210e-002
 -7.3713530e-002 -3.8803025e-002
 -8.2554447e-002 -4.2158592e-002
 -8.6618850e-002 -4.1504769e-002
 -8.3020969e-002 -3.6525810e-002
 -7.5162346e-002 -2.9344804e-002
 -7.0624550e-002 -2.3784719e-002
 -7.5520870e-002 -2.3035226e-002
 -8.9269079e-002 -2.7273287e-002
 -1.0421733e-001 -3.3159036e-002
 -1.1042808e-001 -3.5811017e-002
 -1.0280575e-001 -3.2260846e-002
 -8.4868420e-002 -2.3699835e-002
 -6.6526316e-002 -1.5154852e-002
 -5.7170688e-002 -1.2264777e-002
 -5.9268027e-002 -1.7264793e-002
 -6.6883158e-002 -2.7121848e-002
 -7.0254766e-002 -3.5119519e-002
 -6.3258830e-002 -3.5239388e-002
 -4.7940791e-002 -2.6108927e-002
 -3.2956327e-002 -1.2066522e-002
 -2.7136655e-002 -5.5687851e-004
 -3.3028105e-002  2.5220652e-003
 -4.4969042e-002 -3.5534843e-003
 -5.3446709e-002 -1.4187248e-002
 -5.1964997e-002 -2.2539672e-002
 -4.1668882e-002 -2.3963961e-002
 -3.0436095e-002 -1.8771107e-002
 -2.6889130e-002 -1.1615984e-002
 -3.4297363e-002 -8.2900929e-003
 -4.8434159e-002 -1.1963885e-002
 -6.0922977e-002 -2.1428824e-002
 -6.5346225e-002 -3.2167303e-002
 -6.1441292e-002 -3.9402608e-002
 -5.4689442e-002 -4.1011942e-002
 -5.1749221e-002 -3.8565900e-002
 -5.5338079e-002 -3.5844313e-002
 -6.2454447e-002 -3.6193381e-002
 -6.6971587e-002 -4.0376764e-002
 -6.4554650e-002 -4.6338134e-002
 -5.5922372e-002 -5.0746542e-002
 -4.6188510e-002 -5.1165873e-002
 -4.0938253e-002 -4.7547125e-002
 -4.2141104e-002 -4.2005846e-002
 -4.7076504e-002 -3.7296565e-002
 -5.0746683e-002 -3.4991741e-002
 -5.0004133e-002 -3.4839915e-002
 -4.6042927e-002 -3.5244377e-002
 -4.3247427e-002 -3.4488553e-002
 -4.5346457e-002 -3.1720382e-002
 -5.1905028e-002 -2.7178022e-002
 -5.8142983e-002 -2.1895695e-002
 -5.8335882e-002 -1.7177236e-002
 -5.0339916e-002 -1.4416969e-002
 -3.7841410e-002 -1.4957339e-002
 -2.8427877e-002 -1.9801539e-002
 -2.8501584e-002 -2.8811184e-002
 -3.8541483e-002 -3.9946577e-002
 -5.2407094e-002 -4.9422913e-002
 -6.1168089e-002 -5.3147047e-002
 -5.9162796e-002 -4.9055555e-002
 -4.7959714e-002 -3.8903413e-002
 -3.5440770e-002 -2.7890856e-002
 -3.0528938e-002 -2.2026549e-002
 -3.7280462e-002 -2.4635721e-002
 -5.2105379e-002 -3.4122645e-002
 -6.6251279e-002 -4.4821819e-002
 -7.1853977e-002 -5.0584294e-002
 -6.7094220e-002 -4.8677691e-002
 -5.7017471e-002 -4.1356175e-002
 -4.9627701e-002 -3.4040147e-002
 -5.0249021e-002 -3.1393586e-002
 -5.8000782e-002 -3.4208187e-002
 -6.6958831e-002 -3.9362262e-002
 -7.0677821e-002 -4.2677924e-002
 -6.6764444e-002 -4.2356865e-002
 -5.7988125e-002 -4.0107978e-002
 -4.9440228e-002 -3.9159830e-002
 -4.4255241e-002 -4.0930397e-002
 -4.1564115e-002 -4.3317657e-002
 -3.8087825e-002 -4.2420650e-002
 -3.2005658e-002 -3.6395012e-002
 -2.5657091e-002 -2.8237783e-002
 -2.4411895e-002 -2.4601694e-002
 -3.2396514e-002 -3.1015526e-002
 -4.8285006e-002 -4.7011739e-002
 -6.4861578e-002 -6.5201506e-002
 -7.3419042e-002 -7.5812171e-002
 -6.9692065e-002 -7.3416655e-002
 -5.7135661e-002 -6.1061839e-002
 -4.4730866e-002 -4.8112429e-002
 -4.0558362e-002 -4.3010226e-002
 -4.6006575e-002 -4.6470931e-002
 -5.4903678e-002 -5.0387849e-002
 -5.8240017e-002 -4.3755329e-002
 -5.0915167e-002 -2.1352000e-002
 -3.5406202e-002  1.1549648e-002
 -1.9262216e-002  4.2445102e-002
 -8.9484588e-003  6.0332505e-002
 -4.8821265e-003  6.3317976e-002
 -1.9710546e-003  5.8864322e-002
  4.8988283e-003  5.6432917e-002
  1.5019099e-002  5.8496474e-002
  2.1024989e-002  5.7709152e-002
  1.4533050e-002  4.3220106e-002
 -6.0985437e-003  1.1382304e-002
 -3.2543769e-002 -2.8346286e-002
 -5.1321115e-002 -5.8195866e-002
 -5.3839481e-002 -6.5272082e-002
 -4.3654639e-002 -5.2801185e-002
 -3.4654874e-002 -3.9562280e-002
 -4.0179757e-002 -4.6077312e-002
 -6.1160544e-002 -7.7069058e-002
 -8.3299247e-002 -1.1460904e-001
 -8.7315507e-002 -1.2968222e-001
 -6.5685144e-002 -1.0573236e-001
 -3.2937049e-002 -5.6893952e-002
 -1.9185063e-002 -2.4459654e-002
 -4.8183178e-002 -4.9550171e-002
 -1.1420893e-001 -1.3836979e-001
 -1.7581126e-001 -2.4514593e-001
 -1.7509076e-001 -2.8930917e-001
 -7.4316799e-002 -2.0126491e-001
  1.1251981e-001  2.9673837e-002
  3.1535459e-001  3.3669743e-001
  4.3824679e-001  6.0167114e-001
  4.0911709e-001  7.1380081e-001
  2.2082063e-001  6.2734054e-001
 -6.1346901e-002  3.8450989e-001
 -3.3100017e-001  9.0638132e-002
 -4.9333543e-001 -1.4260756e-001
 -5.0904621e-001 -2.5162187e-001
 -4.0584305e-001 -2.4249592e-001
 -2.5419685e-001 -1.7187801e-001
 -1.2488998e-001 -1.0419690e-001
 -5.4508931e-002 -7.4465172e-002
 -3.6955721e-002 -7.7820648e-002
 -4.0826422e-002 -8.6860891e-002
 -3.6938119e-002 -7.9243012e-002
 -1.6849354e-002 -5.4703362e-002
  7.5498439e-003 -3.1297274e-002
  1.9009658e-002 -2.7362285e-002
  1.0835443e-002 -4.5368850e-002
 -7.9951627e-003 -7.0045658e-002
 -2.0819736e-002 -8.1061856e-002
 -1.6456650e-002 -6.9091372e-002
  2.8385957e-003 -4.2539972e-002
  2.4200286e-002 -2.0189629e-002
  3.4571118e-002 -1.6422896e-002
  3.0259005e-002 -3.0658791e-002
  1.8533365e-002 -4.8873245e-002
  1.1001702e-002 -5.5135069e-002
  1.4490563e-002 -4.3705865e-002
  2.6562957e-002 -2.2527519e-002
  3.8721771e-002 -5.8820401e-003
  4.3830557e-002 -2.8433519e-003
  4.1918775e-002 -1.0507238e-002
  3.9713650e-002 -1.7108919e-002
  4.4815179e-002 -1.1904888e-002
  5.9174164e-002  6.0871099e-003
  7.7078814e-002  2.7252161e-002
  8.9222072e-002  3.8803721e-002
  8.9398412e-002  3.4368498e-002
  7.9112937e-002  1.8562119e-002
  6.6705393e-002  3.4015621e-003
  6.1884328e-002 -2.7490876e-004
  6.9695683e-002  1.0170982e-002
  8.7874505e-002  2.8508531e-002
  1.0915203e-001  4.5136819e-002
  1.2631749e-001  5.3989704e-002
  1.3657637e-001  5.5803193e-002
  1.4237114e-001  5.5910540e-002
  1.4894733e-001  5.9210102e-002
  1.6046023e-001  6.6389275e-002
  1.7735840e-001  7.4086585e-002
  1.9616441e-001  7.8068599e-002
  2.1149818e-001  7.6502612e-002
  2.1870310e-001  7.0710639e-002
  2.1595353e-001  6.3517881e-002
  2.0492986e-001  5.7113565e-002
  1.9013971e-001  5.2437447e-002
  1.7703572e-001  5.0123134e-002
  1.6950041e-001  5.1359334e-002
  1.6769219e-001  5.7232629e-002
  1.6748228e-001  6.6766488e-002
  1.6207190e-001  7.5615510e-002
  1.4559246e-001  7.7367992e-002
  1.1664014e-001  6.7290283e-002
  7.9709721e-002  4.6021063e-002
  4.3283930e-002  2.0132349e-002
  1.5324559e-002 -1.3897542e-003
 -1.0395692e-003 -1.2645087e-002
 -8.7886402e-003 -1.4376769e-002
 -1.4373038e-002 -1.2989690e-002
 -2.2944786e-002 -1.5595510e-002
 -3.4959788e-002 -2.4896330e-002
 -4.6585542e-002 -3.7757985e-002
 -5.3479674e-002 -4.8333413e-002
 -5.5144844e-002 -5.3215196e-002
 -5.6164372e-002 -5.4293004e-002
 -6.3191038e-002 -5.7019230e-002
 -7.9549634e-002 -6.5467280e-002
 -1.0152582e-001 -7.8144965e-002
 -1.1962894e-001 -8.8381638e-002
 -1.2418116e-001 -8.9034310e-002
 -1.1172736e-001 -7.8205303e-002
 -8.7745007e-002 -6.1332973e-002
 -6.3592897e-002 -4.7863096e-002
 -4.9537702e-002 -4.4749409e-002
 -4.8687964e-002 -5.1724718e-002
 -5.5734392e-002 -6.1583226e-002
 -6.1351965e-002 -6.5619455e-002
 -5.8857337e-002 -5.9779383e-002
 -4.8448132e-002 -4.7255319e-002
 -3.6344876e-002 -3.5656790e-002
 -2.9740680e-002 -3.1198736e-002
 -3.1483278e-002 -3.4402968e-002
 -3.8347881e-002 -4.0439483e-002
 -4.3640522e-002 -4.3308579e-002
 -4.2256860e-002 -4.0493570e-002
 -3.4007605e-002 -3.4293717e-002
 -2.3251441e-002 -2.9241928e-002
 -1.5315423e-002 -2.8039348e-002
 -1.2817222e-002 -2.9550600e-002
 -1.4441690e-002 -3.0387843e-002
 -1.6717547e-002 -2.8599740e-002
 -1.7026673e-002 -2.5883321e-002
 -1.5393288e-002 -2.6245137e-002
 -1.3569248e-002 -3.1999951e-002
 -1.2921637e-002 -4.1006796e-002
 -1.3107197e-002 -4.7395350e-002
 -1.2894251e-002 -4.5995550e-002
 -1.2113126e-002 -3.7006077e-002
 -1.2939355e-002 -2.6858338e-002
 -1.8624054e-002 -2.4056383e-002
 -3.0422932e-002 -3.2718620e-002
 -4.5144495e-002 -4.8736914e-002
 -5.5585854e-002 -6.1758961e-002
 -5.4787180e-002 -6.2170337e-002
 -4.1048598e-002 -4.8139695e-002
 -2.0268943e-002 -2.7501314e-002
 -3.4094737e-003 -1.2892736e-002
 -1.2614187e-004 -1.3350920e-002
 -1.2630884e-002 -2.8283797e-002
 -3.3949060e-002 -4.8007297e-002
 -5.1856552e-002 -6.0401362e-002
 -5.6132887e-002 -5.8847341e-002
 -4.4618093e-002 -4.6111857e-002
 -2.4182348e-002 -3.1676777e-002
 -6.1762686e-003 -2.4907313e-002
  4.4476017e-004 -2.9100122e-002
 -5.9285943e-003 -4.0204243e-002
 -1.9303470e-002 -5.0511692e-002
 -3.0155738e-002 -5.3972534e-002
 -3.1067223e-002 -4.9377188e-002
 -2.0553881e-002 -3.9685236e-002
 -3.2359322e-003 -2.8984047e-002
  1.3128784e-002 -1.9910781e-002
  2.1682115e-002 -1.3404050e-002
  1.9523476e-002 -1.0079329e-002
  8.6490949e-003 -1.1212109e-002
 -5.2058583e-003 -1.7900393e-002
 -1.5255669e-002 -2.9168363e-002
 -1.6808227e-002 -4.1134232e-002
 -9.6142018e-003 -4.8818913e-002
  1.8154003e-003 -4.9480519e-002
  1.0251283e-002 -4.5086799e-002
  9.6757164e-003 -4.1266537e-002
 -9.9889572e-004 -4.3098752e-002
 -1.6708848e-002 -5.0855752e-002
 -2.8782560e-002 -5.9170368e-002
 -3.0138142e-002 -6.0832653e-002
 -1.9896351e-002 -5.2614161e-002
 -4.1497407e-003 -3.8539464e-002
  7.8269742e-003 -2.7656301e-002
  9.6474923e-003 -2.7609115e-002
  2.1207115e-003 -3.8664932e-002
 -7.6125729e-003 -5.3003602e-002
 -1.1429011e-002 -5.9975237e-002
 -6.3587298e-003 -5.4013265e-002
  3.0670553e-003 -3.9009511e-002
  8.1603384e-003 -2.5711616e-002
  2.7933691e-003 -2.3927152e-002
 -1.1489172e-002 -3.5259296e-002
 -2.6050068e-002 -5.1982376e-002
 -3.1054005e-002 -6.2828780e-002
 -2.2611960e-002 -6.1376856e-002
 -5.8118861e-003 -5.0696318e-002
  8.7866092e-003 -4.0609872e-002
  1.2535542e-002 -3.9952720e-002
  4.6340556e-003 -4.9733169e-002
 -7.7761734e-003 -6.2549990e-002
 -1.5273136e-002 -6.8606956e-002
 -1.3099554e-002 -6.3531268e-002
 -4.4677281e-003 -5.1955156e-002
  2.1936463e-003 -4.3950789e-002
 -3.5506991e-004 -4.7248922e-002
 -1.3142164e-002 -6.1384361e-002
 -3.0714855e-002 -7.8061647e-002
 -4.5302354e-002 -8.7387062e-002
 -5.1784307e-002 -8.4880338e-002
 -4.9588062e-002 -7.3917574e-002
 -4.0876103e-002 -6.2096380e-002
 -2.7553241e-002 -5.5030314e-002
 -1.0190540e-002 -5.2629277e-002
  1.0056988e-002 -5.0794720e-002
  2.8901885e-002 -4.6450821e-002
  3.9072451e-002 -4.1024313e-002
  3.4576383e-002 -3.9030551e-002
  1.5908682e-002 -4.2950067e-002
 -8.0765293e-003 -4.9085982e-002
 -2.4611324e-002 -4.8794315e-002
 -2.5277970e-002 -3.4778429e-002
 -1.2125831e-002 -7.6314574e-003
  3.5390210e-003  2.3197049e-002
  9.3285145e-003  4.5478479e-002
  1.3481074e-003  5.2934833e-002
 -1.2480443e-002  4.9627956e-002
 -1.8457414e-002  4.5972123e-002
 -8.2560199e-003  4.9220598e-002
  1.3661192e-002  5.6345741e-002
  3.2561595e-002  5.5750405e-002
  3.4438081e-002  3.7106854e-002
  1.7022094e-002  1.6740197e-003
 -8.1658824e-003 -3.6138941e-002
 -2.4907565e-002 -5.8451149e-002
 -2.5594587e-002 -5.8104511e-002
 -1.7675099e-002 -4.5585292e-002
 -1.7052119e-002 -4.1660660e-002
 -3.3088362e-002 -6.0064089e-002
 -5.7687975e-002 -9.3675995e-002
 -6.9297250e-002 -1.1710771e-001
 -5.0861716e-002 -1.0649785e-001
 -8.4532419e-003 -6.2850353e-002
  2.6005625e-002 -1.9550978e-002
  1.4376028e-002 -2.3638976e-002
 -5.6384702e-002 -9.9623415e-002
 -1.5377626e-001 -2.2025723e-001
 -2.0920296e-001 -3.0831739e-001
 -1.5695446e-001 -2.7514094e-001
  1.9404825e-002 -7.6048483e-002
  2.6418038e-001  2.5166824e-001
  4.6929118e-001  5.9533688e-001
  5.2926067e-001  8.1889815e-001
  4.0031090e-001  8.3224261e-001
  1.2760218e-001  6.3763253e-001
 -1.7686314e-001  3.2613144e-001
 -3.9312883e-001  2.6985841e-002
 -4.5374529e-001 -1.5902674e-001
 -3.7122455e-001 -2.0360312e-001
 -2.1935188e-001 -1.4993350e-001
 -8.4034622e-002 -7.3301451e-002
 -1.6059070e-002 -3.2116536e-002
 -1.3077411e-002 -3.9801653e-002
 -3.6533048e-002 -7.0595457e-002
 -4.6428764e-002 -8.8678395e-002
 -2.8405177e-002 -7.6835423e-002
  3.2709057e-003 -4.5382882e-002
  2.3708435e-002 -1.9056247e-002
  1.9707138e-002 -1.5208651e-002
 -9.4009768e-004 -3.1167633e-002
 -1.7926777e-002 -4.8725722e-002
 -1.5804373e-002 -5.0182050e-002
  4.3645966e-003 -3.2187692e-002
  2.7580677e-002 -6.8519561e-003
  3.8105997e-002  9.2175637e-003
  3.1959076e-002  8.2961094e-003
  1.8752909e-002 -3.5626678e-003
  1.2546464e-002 -1.2928917e-002
  1.9847789e-002 -1.0747397e-002
  3.4819506e-002  6.8723316e-004
  4.4883264e-002  1.0659969e-002
  4.1877956e-002  1.0002626e-002
  2.9171296e-002 -6.2648588e-004
  1.9076170e-002 -1.0896212e-002
  2.2847165e-002 -9.2363764e-003
  4.1500737e-002  7.5977543e-003
  6.4983523e-002  3.1564339e-002
  7.9984090e-002  4.9403086e-002
  8.0248744e-002  5.2876408e-002
  7.1129158e-002  4.5021126e-002
  6.4899020e-002  3.7450476e-002
  7.0993086e-002  4.1144503e-002
  8.8737668e-002  5.7874183e-002
  1.0840175e-001  7.8931196e-002
  1.1950638e-001  9.2161234e-002
  1.1950047e-001  9.1424385e-002
  1.1595720e-001  8.1318775e-002
  1.2057195e-001  7.3444523e-002
  1.3971369e-001  7.7395196e-002
  1.6902295e-001  9.3429859e-002
  1.9597049e-001  1.1232383e-001
  2.0871427e-001  1.2238918e-001
  2.0434343e-001  1.1811735e-001
  1.9048693e-001  1.0394762e-001
  1.7941895e-001  9.0628759e-002
  1.7921092e-001  8.7204598e-002
  1.8864047e-001  9.4894703e-002
  1.9913044e-001  1.0708498e-001
  2.0177588e-001  1.1509615e-001
  1.9376432e-001  1.1481471e-001
  1.7959941e-001  1.0912231e-001
  1.6653529e-001  1.0457323e-001
  1.5808605e-001  1.0521620e-001
  1.5097019e-001  1.0875824e-001
  1.3765583e-001  1.0806206e-001
  1.1241953e-001  9.6699945e-002
  7.6307238e-002  7.4305385e-002
  3.7316298e-002  4.7529331e-002
  5.7519077e-003  2.5760863e-002
 -1.1915530e-002  1.4831771e-002
 -1.6575932e-002  1.3194897e-002
 -1.5273713e-002  1.3259774e-002
 -1.6346932e-002  6.8667025e-003
 -2.4455268e-002 -9.0401879e-003
 -3.8473861e-002 -3.0436617e-002
 -5.3000726e-002 -4.8958740e-002
 -6.1920511e-002 -5.7309008e-002
 -6.1870402e-002 -5.3563657e-002
 -5.3527698e-002 -4.1826304e-002
 -4.0912161e-002 -2.9286826e-002
 -2.9287012e-002 -2.1933891e-002
 -2.3048789e-002 -2.1745817e-002
 -2.4308736e-002 -2.6629703e-002
 -3.2252836e-002 -3.2577485e-002
 -4.3430860e-002 -3.6255805e-002
 -5.3109001e-002 -3.6455527e-002
 -5.7233885e-002 -3.3793799e-002
 -5.4271153e-002 -2.9810427e-002
