 -1.1553286e-002 -3.9087863e-002
 -1.0850592e-002 -3.9761156e-002
 -1.4979723e-002 -4.8241676e-002
 -1.9686529e-002 -5.6061096e-002
 -2.1046503e-002 -5.6678654e-002
 -1.8449874e-002 -5.0573212e-002
 -1.4811859e-002 -4.4076797e-002
 -1.4005838e-002 -4.3402890e-002
 -1.7664173e-002 -4.9133036e-002
 -2.3895688e-002 -5.5905168e-002
 -2.8749722e-002 -5.7363324e-002
 -2.9252777e-002 -5.1945624e-002
 -2.5575020e-002 -4.4416513e-002
 -2.0722814e-002 -4.1756660e-002
 -1.8271029e-002 -4.6937072e-002
 -1.9725476e-002 -5.5854725e-002
 -2.3750495e-002 -6.0455732e-002
 -2.7527595e-002 -5.5567631e-002
 -2.9043089e-002 -4.3715121e-002
 -2.8494284e-002 -3.3755679e-002
 -2.7838632e-002 -3.4046537e-002
 -2.8979096e-002 -4.5527110e-002
 -3.2183938e-002 -6.0444680e-002
 -3.5900250e-002 -6.8073236e-002
 -3.7954524e-002 -6.3058915e-002
 -3.7127183e-002 -4.9771179e-002
 -3.3781786e-002 -3.8922785e-002
 -2.9389711e-002 -3.9064613e-002
 -2.5466983e-002 -4.9660997e-002
 -2.2928018e-002 -6.1439059e-002
 -2.2220758e-002 -6.3905758e-002
 -2.3758969e-002 -5.4046318e-002
 -2.7897157e-002 -3.9130224e-002
 -3.4307069e-002 -3.1182929e-002
 -4.1427530e-002 -3.7333075e-002
 -4.6767446e-002 -5.3735996e-002
 -4.8221965e-002 -6.8182294e-002
 -4.5586306e-002 -6.9432939e-002
 -4.0969843e-002 -5.6049890e-002
 -3.7535888e-002 -3.7598087e-002
 -3.7235159e-002 -2.7192163e-002
 -3.9376012e-002 -3.1339501e-002
 -4.1175461e-002 -4.5004635e-002
 -4.0199776e-002 -5.6007323e-002
 -3.6588442e-002 -5.5090817e-002
 -3.3298773e-002 -4.3470163e-002
 -3.3850316e-002 -3.1633020e-002
 -3.9197463e-002 -3.0330511e-002
 -4.6236065e-002 -4.1130787e-002
 -4.9565895e-002 -5.4588696e-002
 -4.5477453e-002 -5.7807524e-002
 -3.5230016e-002 -4.5457162e-002
 -2.4845680e-002 -2.5061614e-002
 -2.1220013e-002 -1.1811636e-002
 -2.7134582e-002 -1.6536729e-002
 -3.8969226e-002 -3.6501730e-002
 -4.8920015e-002 -5.6683247e-002
 -5.0434322e-002 -6.1193540e-002
 -4.2855383e-002 -4.5952612e-002
 -3.1835579e-002 -2.2457326e-002
 -2.5121059e-002 -9.1940234e-003
 -2.6826055e-002 -1.7104155e-002
 -3.4523877e-002 -4.0507658e-002
 -4.1373325e-002 -6.0945942e-002
 -4.1537264e-002 -6.1150269e-002
 -3.4713293e-002 -3.8280330e-002
 -2.6286817e-002 -5.9326341e-003
 -2.3009234e-002  1.6686226e-002
 -2.7572235e-002  1.9762866e-002
 -3.6422225e-002  9.8319492e-003
 -4.2488153e-002  3.1199926e-003
 -4.0548773e-002  1.0890484e-002
 -3.0975592e-002  2.9158299e-002
 -1.8975808e-002  4.1733204e-002
 -1.0165696e-002  3.4387668e-002
 -6.3235576e-003  8.2786383e-003
 -4.9030050e-003 -1.9323149e-002
 -2.5856740e-003 -2.8688720e-002
  4.3143250e-004 -1.4906658e-002
 -3.9068455e-004  6.0516011e-003
 -1.0035418e-002  8.9940672e-003
 -2.8389382e-002 -1.9388125e-002
 -4.8086693e-002 -6.7102768e-002
 -5.8545134e-002 -1.0365617e-001
 -5.3701389e-002 -1.0341676e-001
 -3.7525619e-002 -6.7613376e-002
 -2.2175235e-002 -2.6042005e-002
 -1.9265244e-002 -1.4707053e-002
 -3.0715284e-002 -4.5762783e-002
 -4.6733401e-002 -9.4601294e-002
 -5.3768964e-002 -1.1768989e-001
 -4.6874997e-002 -9.0180689e-002
 -3.6377382e-002 -3.3567144e-002
 -4.1545957e-002 -6.7310160e-003
 -7.3587640e-002 -5.9622260e-002
 -1.1956703e-001 -1.7972560e-001
 -1.4080905e-001 -2.7383872e-001
 -9.1079566e-002 -2.0880039e-001
  5.3956145e-002  1.0537479e-001
  2.7409385e-001  6.4050106e-001
  5.0510703e-001  1.2363694e+000
  6.6548595e-001  1.6666161e+000
  6.9580924e-001  1.7521620e+000
  5.8841706e-001  1.4569083e+000
  3.9012678e-001  9.0794846e-001
  1.7671919e-001  3.2752617e-001
  1.4728359e-002 -8.2483868e-002
 -6.7321193e-002 -2.3542959e-001
 -8.3320642e-002 -1.8187207e-001
 -7.0681751e-002 -5.4092059e-002
 -6.2988965e-002  2.4554090e-002
 -7.1982199e-002  6.6483649e-003
 -8.7929021e-002 -7.2148717e-002
 -9.4194319e-002 -1.3937630e-001
 -8.3173731e-002 -1.4565609e-001
 -6.2022118e-002 -9.5942189e-002
 -4.5688445e-002 -3.5943455e-002
 -4.4421233e-002 -1.1099666e-002
 -5.6032396e-002 -3.2235486e-002
 -6.8427822e-002 -7.2186494e-002
 -6.9508573e-002 -9.1729646e-002
 -5.6384096e-002 -7.1670768e-002
 -3.6974948e-002 -2.5995802e-002
 -2.3435518e-002  1.1932786e-002
 -2.3022299e-002  1.6855762e-002
 -3.3344312e-002 -9.5276684e-003
 -4.5109792e-002 -4.2019214e-002
 -4.9461319e-002 -5.2970199e-002
 -4.4005762e-002 -3.3293228e-002
 -3.3279137e-002  2.5838877e-003
 -2.4071914e-002  3.0098737e-002
 -1.9962448e-002  3.4232511e-002
 -1.9296028e-002  1.9831461e-002
 -1.7739390e-002  5.5513296e-003
 -1.2668752e-002  7.8026725e-003
 -5.4461735e-003  2.8295037e-002
  1.6371343e-004  5.4544538e-002
  1.7412106e-003  7.1664654e-002
  6.6309247e-004  7.4830863e-002
  1.0913243e-003  7.2275201e-002
  6.3433041e-003  7.7118156e-002
  1.5840688e-002  9.5670652e-002
  2.5283451e-002  1.2219872e-001
  3.0039306e-002  1.4416496e-001
  2.8997833e-002  1.5299802e-001
  2.5680538e-002  1.5104506e-001
  2.5526519e-002  1.4884473e-001
  3.1430817e-002  1.5529797e-001
  4.1084700e-002  1.6919496e-001
  4.8151335e-002  1.7927699e-001
  4.6543040e-002  1.7289926e-001
  3.4551418e-002  1.4616282e-001
  1.5935153e-002  1.0729673e-001
 -2.6955952e-003  7.0612549e-002
 -1.6162535e-002  4.6046081e-002
 -2.3420726e-002  3.2757942e-002
 -2.7088899e-002  2.1617655e-002
 -3.0588453e-002  4.1238959e-003
 -3.5385441e-002 -1.9870044e-002
 -4.0299392e-002 -4.1926324e-002
 -4.3094175e-002 -5.2316877e-002
 -4.2671203e-002 -4.8549664e-002
 -4.0019644e-002 -3.7956750e-002
 -3.7336572e-002 -3.2175083e-002
 -3.6222360e-002 -3.8008562e-002
 -3.6625326e-002 -5.2171353e-002
 -3.7268630e-002 -6.4119599e-002
 -3.7006368e-002 -6.4623226e-002
 -3.5748189e-002 -5.3095449e-002
 -3.4274883e-002 -3.7944120e-002
 -3.3303448e-002 -2.9845392e-002
 -3.2795895e-002 -3.3498302e-002
 -3.2265143e-002 -4.4469994e-002
 -3.1647787e-002 -5.3293379e-002
 -3.1754364e-002 -5.3268293e-002
 -3.3581371e-002 -4.5442493e-002
 -3.6995876e-002 -3.7059303e-002
 -4.0073932e-002 -3.5119456e-002
 -4.0065956e-002 -4.0686054e-002
 -3.5532205e-002 -4.8531049e-002
 -2.8035335e-002 -5.2127700e-002
 -2.1616136e-002 -4.9367178e-002
 -2.0233523e-002 -4.4134309e-002
 -2.4696333e-002 -4.2478806e-002
 -3.1591488e-002 -4.6852476e-002
 -3.5311473e-002 -5.3633035e-002
 -3.1975170e-002 -5.6146769e-002
 -2.2441363e-002 -5.0650917e-002
 -1.2073783e-002 -4.0040689e-002
 -7.2245995e-003 -3.1909870e-002
 -1.0951067e-002 -3.2370280e-002
 -2.0987361e-002 -4.0772830e-002
 -3.1443593e-002 -4.9926491e-002
 -3.6953988e-002 -5.1884768e-002
 -3.6180760e-002 -4.4634273e-002
 -3.2187459e-002 -3.4097729e-002
 -2.9545767e-002 -2.9552512e-002
 -3.0596050e-002 -3.6005848e-002
 -3.3768988e-002 -4.9748732e-002
 -3.5129342e-002 -6.0797099e-002
 -3.1822098e-002 -6.0547798e-002
 -2.4638072e-002 -4.8658457e-002
 -1.7678042e-002 -3.3600793e-002
 -1.5472627e-002 -2.6452122e-002
 -1.9755715e-002 -3.2638422e-002
 -2.8272083e-002 -4.8049033e-002
 -3.6427394e-002 -6.2392097e-002
 -4.0350709e-002 -6.6999050e-002
 -3.9074857e-002 -6.0889559e-002
 -3.4479124e-002 -5.0640385e-002
 -2.9406004e-002 -4.4580611e-002
 -2.5748246e-002 -4.6289239e-002
 -2.3833595e-002 -5.2542084e-002
 -2.3225350e-002 -5.7072335e-002
 -2.3810343e-002 -5.6354196e-002
 -2.5918811e-002 -5.2489669e-002
 -2.9535516e-002 -5.0818226e-002
 -3.3520454e-002 -5.4668167e-002
 -3.5883261e-002 -6.1941054e-002
 -3.5179161e-002 -6.6728164e-002
 -3.1821328e-002 -6.4589120e-002
 -2.7952636e-002 -5.6649931e-002
 -2.5908364e-002 -4.9047291e-002
 -2.6343641e-002 -4.7813590e-002
 -2.7744190e-002 -5.3737400e-002
 -2.7903006e-002 -6.1706667e-002
 -2.6182472e-002 -6.5216412e-002
 -2.4509272e-002 -6.2229111e-002
 -2.5904243e-002 -5.7188202e-002
 -3.1574630e-002 -5.7204575e-002
 -3.8983489e-002 -6.5490585e-002
 -4.2939604e-002 -7.7763955e-002
 -3.9305168e-002 -8.5094750e-002
 -2.8676321e-002 -8.1292498e-002
 -1.6913361e-002 -6.8678591e-002
 -1.1604026e-002 -5.7136245e-002
 -1.6674847e-002 -5.6584306e-002
 -2.9114789e-002 -6.8707948e-002
 -4.0595690e-002 -8.4871434e-002
 -4.3179771e-002 -9.2443986e-002
 -3.4986917e-002 -8.4795734e-002
 -2.1701370e-002 -6.7091583e-002
 -1.2557850e-002 -5.2818178e-002
 -1.3690652e-002 -5.3380548e-002
 -2.3698081e-002 -6.8892707e-002
 -3.4733335e-002 -8.7603011e-002
 -3.8382014e-002 -9.4802174e-002
 -3.1902586e-002 -8.4366883e-002
 -2.0128328e-002 -6.3749974e-002
 -1.1765571e-002 -4.8342969e-002
 -1.2878790e-002 -4.9444872e-002
 -2.2572099e-002 -6.5393583e-002
 -3.3908497e-002 -8.2907824e-002
 -3.9235545e-002 -8.7690213e-002
 -3.5734618e-002 -7.5828433e-002
 -2.6951920e-002 -5.6785518e-002
 -1.9558826e-002 -4.5666258e-002
 -1.8052309e-002 -5.0937617e-002
 -2.1712242e-002 -6.7602258e-002
 -2.5953076e-002 -8.1431251e-002
 -2.6586460e-002 -8.0721542e-002
 -2.3306991e-002 -6.6025126e-002
 -1.9560525e-002 -4.9745937e-002
 -1.9149925e-002 -4.5896131e-002
 -2.2628907e-002 -5.8348720e-002
 -2.6747088e-002 -7.7429643e-002
 -2.7419479e-002 -8.7771408e-002
 -2.3604359e-002 -8.1054761e-002
 -1.8614312e-002 -6.3127285e-002
 -1.7481183e-002 -4.9384905e-002
 -2.2514504e-002 -5.1971394e-002
 -3.0804598e-002 -6.9338397e-002
 -3.6015035e-002 -8.6911645e-002
 -3.3300926e-002 -8.8674392e-002
 -2.3356458e-002 -7.0216144e-002
 -1.2243273e-002 -4.2471286e-002
 -6.8565962e-003 -2.2812593e-002
 -9.5746269e-003 -2.0765283e-002
 -1.6435333e-002 -3.0279929e-002
 -2.0359719e-002 -3.5324173e-002
 -1.6799453e-002 -2.4299247e-002
 -7.2567048e-003 -1.2046267e-003
  2.2617142e-003  1.6479219e-002
  6.5135742e-003  1.2142237e-002
  5.4515339e-003 -1.5103502e-002
  3.9076679e-003 -4.7998799e-002
  6.6743234e-003 -6.4256837e-002
  1.3157648e-002 -5.5194309e-002
  1.6756013e-002 -3.4137646e-002
  1.0100900e-002 -2.6518395e-002
 -7.8367478e-003 -4.8547132e-002
 -2.8928434e-002 -9.1858154e-002
 -4.0644675e-002 -1.2796105e-001
 -3.5492865e-002 -1.3069894e-001
 -1.7750563e-002 -9.9097109e-002
 -1.4205907e-003 -6.0885683e-002
  1.2483661e-004 -5.1349577e-002
 -1.4888088e-002 -8.2935974e-002
 -3.4240874e-002 -1.3104086e-001
 -4.1115862e-002 -1.5095846e-001
 -2.9004805e-002 -1.1621718e-001
 -1.0160221e-002 -4.8309200e-002
 -8.7733266e-003 -9.4195087e-003
 -4.1309242e-002 -5.5744459e-002
 -9.7030865e-002 -1.8098873e-001
 -1.3457952e-001 -2.9406183e-001
 -1.0118195e-001 -2.5721918e-001
  3.4552460e-002  2.9857627e-002
  2.5626341e-001  5.5056400e-001
  4.9845857e-001  1.1517851e+000
  6.7413829e-001  1.6059356e+000
  7.1725807e-001  1.7248137e+000
  6.1575987e-001  1.4597409e+000
  4.1610642e-001  9.2788218e-001
  1.9714102e-001  3.4849075e-001
  2.9643397e-002 -7.2140442e-002
 -5.4910743e-002 -2.3898540e-001
 -7.0045995e-002 -1.9525479e-001
 -5.5074806e-002 -7.0493378e-002
 -4.6265162e-002  9.6803021e-003
 -5.7092134e-002 -6.6759522e-003
 -7.7678444e-002 -8.7066275e-002
 -8.9531034e-002 -1.5862573e-001
 -8.2491563e-002 -1.6859556e-001
 -6.1728155e-002 -1.1830436e-001
 -4.1725991e-002 -5.2504061e-002
 -3.3997242e-002 -1.9373514e-002
 -3.8823446e-002 -3.4576348e-002
 -4.6683290e-002 -7.4794917e-002
 -4.7096192e-002 -1.0117564e-001
 -3.7139782e-002 -9.1140982e-002
 -2.3140568e-002 -5.3629418e-002
 -1.4800969e-002 -1.8280561e-002
 -1.7122235e-002 -9.9157786e-003
 -2.6639662e-002 -2.9511273e-002
 -3.4577985e-002 -5.5670673e-002
 -3.3908836e-002 -6.3448120e-002
 -2.4549276e-002 -4.4292505e-002
 -1.2803871e-002 -1.1443332e-002
 -5.9441753e-003  1.2183326e-002
 -6.5144669e-003  1.2799679e-002
 -1.0822518e-002 -3.9794836e-003
 -1.2454198e-002 -1.8764869e-002
 -7.6839998e-003 -1.4389376e-002
  1.7146635e-003  1.0959831e-002
  1.0302229e-002  4.3494176e-002
  1.3675384e-002  6.5655709e-002
  1.2114783e-002  6.9977440e-002
  1.0256469e-002  6.3937940e-002
  1.3183377e-002  6.2686513e-002
  2.2248286e-002  7.6284028e-002
  3.3969333e-002  1.0194349e-001
  4.2825712e-002  1.2708635e-001
  4.5572621e-002  1.4000933e-001
  4.3653491e-002  1.3923077e-001
  4.1753090e-002  1.3389028e-001
  4.3812839e-002  1.3537859e-001
  4.9656559e-002  1.4718959e-001
  5.4885766e-002  1.6132213e-001
  5.4061726e-002  1.6398332e-001
  4.4708689e-002  1.4596559e-001
  2.9132790e-002  1.0957388e-001
  1.2771302e-002  6.6931505e-002
  5.0489747e-004  3.1408089e-002
 -6.1874489e-003  8.9824863e-003
 -9.3494515e-003 -4.1111005e-003
 -1.2184201e-002 -1.6335710e-002
 -1.6317774e-002 -3.3045171e-002
 -2.0847607e-002 -5.2319782e-002
 -2.3670879e-002 -6.7308053e-002
 -2.3735102e-002 -7.2636925e-002
 -2.2195934e-002 -6.9227517e-002
 -2.1468537e-002 -6.3625849e-002
 -2.3075852e-002 -6.2598911e-002
 -2.6213197e-002 -6.7626833e-002
 -2.8316974e-002 -7.3902314e-002
 -2.7153864e-002 -7.4494027e-002
 -2.2822038e-002 -6.6350141e-002
 -1.7962501e-002 -5.3121609e-002
 -1.5951248e-002 -4.2582015e-002
 -1.8385904e-002 -4.0776144e-002
 -2.3903706e-002 -4.7568597e-002
 -2.9155415e-002 -5.7014619e-002
 -3.1177487e-002 -6.2108985e-002
 -2.9317727e-002 -6.0043216e-002
 -2.5326849e-002 -5.3902738e-002
 -2.1614116e-002 -4.9611252e-002
 -1.9339922e-002 -5.0852426e-002
 -1.7764603e-002 -5.6091561e-002
 -1.5372048e-002 -6.0038072e-002
 -1.1706112e-002 -5.8251179e-002
 -8.2357579e-003 -5.1021468e-002
 -7.4062328e-003 -4.3378821e-002
 -1.0532097e-002 -4.1152878e-002
 -1.6334700e-002 -4.6254688e-002
 -2.1445819e-002 -5.4959863e-002
 -2.2675211e-002 -6.0569518e-002
 -1.9411032e-002 -5.8407683e-002
 -1.4284178e-002 -4.9345324e-002
 -1.1444782e-002 -3.8995372e-002
 -1.3553972e-002 -3.3418297e-002
 -1.9714629e-002 -3.4534211e-002
 -2.5982583e-002 -3.8921585e-002
 -2.8050706e-002 -4.0812879e-002
 -2.4324838e-002 -3.6992744e-002
 -1.7112673e-002 -2.9602174e-002
 -1.0972514e-002 -2.4611274e-002
 -9.7392659e-003 -2.7226608e-002
 -1.3928573e-002 -3.7519749e-002
 -2.0664607e-002 -4.9864839e-002
 -2.5950036e-002 -5.6852844e-002
 -2.7474876e-002 -5.4580459e-002
 -2.5924323e-002 -4.5524821e-002
 -2.3930340e-002 -3.6633988e-002
 -2.3742031e-002 -3.4208641e-002
 -2.5408201e-002 -3.9235946e-002
 -2.6926903e-002 -4.6835862e-002
 -2.6218900e-002 -5.0270404e-002
 -2.3143532e-002 -4.6369249e-002
 -1.9937719e-002 -3.8245544e-002
 -1.9533448e-002 -3.3055228e-002
 -2.3125214e-002 -3.6511765e-002
 -2.8923060e-002 -4.8237408e-002
 -3.3164792e-002 -6.1612899e-002
 -3.2763893e-002 -6.8412282e-002
 -2.7589231e-002 -6.4808438e-002
 -2.0668145e-002 -5.4238947e-002
 -1.6130578e-002 -4.4926118e-002
 -1.6344214e-002 -4.3855470e-002
 -2.0446159e-002 -5.1731118e-002
 -2.5242597e-002 -6.2667811e-002
 -2.7783494e-002 -6.8827169e-002
 -2.7492589e-002 -6.6369027e-002
 -2.6237964e-002 -5.8217899e-002
 -2.6452054e-002 -5.1553482e-002
 -2.8849971e-002 -5.2055299e-002
 -3.1651865e-002 -5.9459422e-002
 -3.1982702e-002 -6.7904507e-002
 -2.8374709e-002 -7.0757696e-002
 -2.2263967e-002 -6.6011415e-002
 -1.7201002e-002 -5.7915254e-002
 -1.6227545e-002 -5.3508292e-002
 -1.9550927e-002 -5.6866174e-002
 -2.4322647e-002 -6.5706432e-002
 -2.6792156e-002 -7.3209745e-002
 -2.5166689e-002 -7.3602379e-002
 -2.0994076e-002 -6.6978392e-002
 -1.7906737e-002 -5.9321599e-002
 -1.8716396e-002 -5.7572195e-002
 -2.3143560e-002 -6.3701959e-002
 -2.8003324e-002 -7.2758196e-002
 -2.9741044e-002 -7.6726890e-002
 -2.7252194e-002 -7.1245487e-002
 -2.2711382e-002 -5.9704881e-002
 -1.9783108e-002 -5.1090830e-002
 -2.0595733e-002 -5.2946785e-002
 -2.3973548e-002 -6.4975946e-002
 -2.6436585e-002 -7.8640202e-002
 -2.5153657e-002 -8.3424736e-002
 -2.0495545e-002 -7.5121414e-002
 -1.5965058e-002 -5.9481506e-002
 -1.5456144e-002 -4.8109835e-002
 -1.9996560e-002 -4.9547098e-002
 -2.6655904e-002 -6.2493635e-002
 -3.0620456e-002 -7.6692498e-002
 -2.8897689e-002 -8.0919019e-002
 -2.2711846e-002 -7.1804407e-002
 -1.6631838e-002 -5.6421465e-002
 -1.4971494e-002 -4.6449935e-002
 -1.8317909e-002 -4.8570933e-002
 -2.3082793e-002 -5.9027645e-002
 -2.4461652e-002 -6.6869299e-002
 -2.0491104e-002 -6.3433993e-002
 -1.3897395e-002 -5.0208950e-002
 -1.0081898e-002 -3.8257656e-002
 -1.2729406e-002 -3.9260336e-002
 -2.0570425e-002 -5.5300334e-002
 -2.7946354e-002 -7.5938689e-002
 -2.9010562e-002 -8.5604802e-002
 -2.2237873e-002 -7.5653042e-002
 -1.1683597e-002 -5.1454884e-002
 -3.8850956e-003 -2.8347309e-002
 -2.8642929e-003 -1.9390195e-002
 -7.1978527e-003 -2.4782054e-002
 -1.1489524e-002 -3.1906297e-002
 -1.0995962e-002 -2.6412862e-002
 -5.5454722e-003 -5.4141426e-003
  6.1134363e-004  1.8526096e-002
  2.9260746e-003  2.6762377e-002
  1.0564616e-003  1.0266887e-002
 -4.5018234e-004 -2.1403652e-002
  3.7716679e-003 -4.6198121e-002
  1.4264473e-002 -4.6920470e-002
  2.4670452e-002 -2.6047717e-002
  2.5666879e-002 -5.1584016e-003
  1.2498864e-002 -8.0467249e-003
 -9.9087687e-003 -4.0363746e-002
 -2.9173692e-002 -8.2955514e-002
 -3.4264697e-002 -1.0588772e-001
 -2.4482129e-002 -9.3263650e-002
 -1.1028389e-002 -5.8519143e-002
 -8.8509339e-003 -3.5766697e-002
 -2.4199638e-002 -5.1688114e-002
 -4.7779921e-002 -9.9912467e-002
 -6.0258764e-002 -1.4102622e-001
 -4.7610162e-002 -1.3267620e-001
 -1.5177070e-002 -6.8948041e-002
  1.1671421e-002  3.7717448e-003
  3.9928450e-003  1.4036877e-002
 -4.6476630e-002 -7.6636216e-002
 -1.1248156e-001 -2.2506628e-001
 -1.3905463e-001 -3.0819510e-001
 -7.3198771e-002 -1.8635168e-001
  1.0101211e-001  2.0446381e-001
  3.4424114e-001  7.9000151e-001
  5.7434416e-001  1.3715469e+000
  7.0485130e-001  1.7173492e+000
  6.8814122e-001  1.6824592e+000
  5.3848441e-001  1.2865002e+000
  3.2203676e-001  7.0234461e-001
  1.2067478e-001  1.6252555e-001
 -8.3725402e-003 -1.6009847e-001
 -5.4406313e-002 -2.2782345e-001
 -4.6909756e-002 -1.3071168e-001
 -2.8977905e-002 -1.0473472e-002
 -2.9443307e-002  3.0290605e-002
 -5.0473747e-002 -2.2841408e-002
 -7.4918136e-002 -1.1142631e-001
 -8.4388072e-002 -1.6238230e-001
 -7.3770121e-002 -1.4333140e-001
 -5.2970911e-002 -7.8533596e-002
 -3.7142286e-002 -2.1455486e-002
 -3.4581667e-002 -1.0690435e-002
 -4.1665024e-002 -4.3635846e-002
 -4.7592607e-002 -8.4570695e-002
 -4.3944765e-002 -9.6361219e-002
 -3.1129122e-002 -6.9054920e-002
 -1.7091289e-002 -2.4251009e-002
 -1.0279155e-002  5.1231861e-003
 -1.2914305e-002  1.4502836e-003
 -1.9850800e-002 -2.5631659e-002
 -2.3254842e-002 -4.9501904e-002
 -1.8987934e-002 -4.8894746e-002
 -9.4306948e-003 -2.3742532e-002
 -8.8278831e-004  7.0836439e-003
  1.8927873e-003  2.2603182e-002
 -6.2427246e-004  1.6609009e-002
 -3.6425558e-003  1.2602885e-003
 -2.4160205e-003 -4.2201921e-003
  3.7598668e-003  1.0444850e-002
  1.1133920e-002  3.8972606e-002
  1.4939094e-002  6.4779170e-002
  1.3619180e-002  7.5025350e-002
  1.0305861e-002  7.0696648e-002
  1.0322605e-002  6.4833438e-002
  1.6805826e-002  7.1137694e-002
  2.8008694e-002  9.2688766e-002
  3.8527528e-002  1.1990264e-001
  4.3401902e-002  1.3879531e-001
  4.1901658e-002  1.4237539e-001
  3.8012057e-002  1.3574656e-001
  3.7261541e-002  1.3112204e-001
  4.2332239e-002  1.3714887e-001
  5.0809215e-002  1.5142000e-001
  5.6695265e-002  1.6200977e-001
  5.4577657e-002  1.5659814e-001
  4.3242197e-002  1.3166197e-001
  2.6251261e-002  9.4737660e-002
  9.3179153e-003  5.8432362e-002
 -3.3395860e-003  3.1404795e-002
 -1.1093234e-002  1.3359884e-002
 -1.6203352e-002 -2.4136787e-003
 -2.1266391e-002 -2.1940815e-002
 -2.7014102e-002 -4.4921712e-002
 -3.2038089e-002 -6.5068530e-002
 -3.4495658e-002 -7.5517941e-002
 -3.4048941e-002 -7.4692367e-002
 -3.2393966e-002 -6.7649403e-002
 -3.2009565e-002 -6.2133056e-002
 -3.4170439e-002 -6.2803379e-002
 -3.7864323e-002 -6.8280941e-002
 -4.0436302e-002 -7.3077278e-002
 -3.9549071e-002 -7.2477347e-002
 -3.5033855e-002 -6.6273288e-002
 -2.9156802e-002 -5.8499094e-002
 -2.5179207e-002 -5.3852057e-002
 -2.5169331e-002 -5.3976040e-002
 -2.8676280e-002 -5.6642276e-002
 -3.2987705e-002 -5.8049896e-002
 -3.4862597e-002 -5.6058776e-002
 -3.2550548e-002 -5.1548179e-002
 -2.6860917e-002 -4.7125886e-002
 -2.0587084e-002 -4.4574588e-002
 -1.6817518e-002 -4.3532712e-002
 -1.7131986e-002 -4.2325268e-002
 -2.0818529e-002 -4.0045116e-002
 -2.5400137e-002 -3.7671537e-002
 -2.8230694e-002 -3.7283021e-002
 -2.7984506e-002 -3.9968878e-002
 -2.5342691e-002 -4.4522872e-002
 -2.2324244e-002 -4.8087542e-002
 -2.0849804e-002 -4.8353274e-002
 -2.1463758e-002 -4.5370609e-002
 -2.3046829e-002 -4.1429868e-002
 -2.3725182e-002 -3.9184701e-002
 -2.2262852e-002 -3.9585008e-002
 -1.9044532e-002 -4.1428436e-002
 -1.5886560e-002 -4.2765264e-002
 -1.4767020e-002 -4.2731331e-002
 -1.6423537e-002 -4.2229593e-002
 -1.9750668e-002 -4.2818623e-002
 -2.2641804e-002 -4.5037426e-002
 -2.3464024e-002 -4.7776491e-002
 -2.2193371e-002 -4.9417751e-002
 -2.0336304e-002 -4.9579585e-002
 -1.9642219e-002 -4.9670558e-002
 -2.0787550e-002 -5.1654752e-002
 -2.2875220e-002 -5.5868612e-002
 -2.4287219e-002 -6.0055606e-002
 -2.4075851e-002 -6.0843190e-002
 -2.2762138e-002 -5.6643882e-002
 -2.1833678e-002 -4.9531317e-002
 -2.2389325e-002 -4.4219910e-002
 -2.4122023e-002 -4.4682721e-002
 -2.5475145e-002 -5.0943635e-002
 -2.4977753e-002 -5.8841119e-002
 -2.2520141e-002 -6.3031532e-002
 -1.9568202e-002 -6.1053054e-002
 -1.7919530e-002 -5.5117739e-002
 -1.8165882e-002 -5.0212002e-002
 -1.9191457e-002 -5.0067238e-002
 -1.9270206e-002 -5.4295614e-002
 -1.7863257e-002 -5.9079681e-002
 -1.6483971e-002 -6.0714537e-002
 -1.7620300e-002 -5.8802140e-002
 -2.2426510e-002 -5.6333120e-002
 -2.9116042e-002 -5.6582217e-002
 -3.3632693e-002 -5.9619260e-002
 -3.2580324e-002 -6.1844631e-002
 -2.6202206e-002 -5.9222473e-002
 -1.8852178e-002 -5.1505676e-002
 -1.6193607e-002 -4.3590228e-002
 -2.0890675e-002 -4.2210334e-002
 -3.0158077e-002 -5.0379961e-002
 -3.7319437e-002 -6.4170760e-002
 -3.6595619e-002 -7.4990004e-002
 -2.7695028e-002 -7.5975205e-002
 -1.6526753e-002 -6.7509028e-002
 -1.1116522e-002 -5.7096287e-002
 -1.5594226e-002 -5.3386406e-002
 -2.6767281e-002 -5.8920287e-002
 -3.6179184e-002 -6.7754298e-002
 -3.6310748e-002 -7.0229330e-002
 -2.6411331e-002 -6.1349552e-002
 -1.3401839e-002 -4.5770150e-002
 -6.9650564e-003 -3.4920048e-002
 -1.2344893e-002 -3.8033051e-002
 -2.6259379e-002 -5.4228049e-002
 -3.9165008e-002 -7.2335960e-002
 -4.2265979e-002 -7.9220356e-002
 -3.3955935e-002 -7.0210862e-002
 -2.0802309e-002 -5.3145010e-002
 -1.2419736e-002 -4.2372314e-002
 -1.4237050e-002 -4.7208531e-002
 -2.3654886e-002 -6.4035526e-002
 -3.2538235e-002 -7.8802342e-002
 -3.3856493e-002 -7.8156911e-002
 -2.7119268e-002 -6.0336548e-002
 -1.8293990e-002 -3.6701158e-002
 -1.4474223e-002 -2.2353837e-002
 -1.7880555e-002 -2.3450882e-002
 -2.4149993e-002 -3.1816984e-002
 -2.6283810e-002 -3.1862622e-002
 -2.0871121e-002 -1.4455029e-002
 -1.1125487e-002  1.3928980e-002
 -4.0390254e-003  3.5074820e-002
 -3.9436852e-003  3.3576128e-002
 -8.1712765e-003  1.0234702e-002
 -8.9642492e-003 -1.7339571e-002
 -5.6768978e-004 -2.8588980e-002
  1.4380738e-002 -1.7532609e-002
  2.5100690e-002  8.6414114e-004
  2.0364308e-002  2.1050055e-003
 -1.9666141e-003 -2.6854952e-002
 -3.1399838e-002 -7.4275989e-002
 -5.1107973e-002 -1.1045588e-001
 -5.0110670e-002 -1.1110027e-001
 -3.2032181e-002 -7.8885332e-002
 -1.2996145e-002 -4.4315646e-002
 -9.2734671e-003 -4.2362583e-002
 -2.4019176e-002 -8.1991141e-002
 -4.3879648e-002 -1.3416064e-001
 -4.9529752e-002 -1.5189627e-001
 -3.2853177e-002 -1.1047864e-001
 -7.0518720e-003 -3.6371487e-002
  3.4309151e-004  2.9947678e-003
 -3.0789819e-002 -5.0794069e-002
 -9.1409991e-002 -1.8928439e-001
 -1.3889264e-001 -3.1622191e-001
 -1.1716621e-001 -2.8884405e-001
  8.4224563e-003 -4.7810496e-003
  2.2317073e-001  5.1787472e-001
  4.6146685e-001  1.1227471e+000
  6.3559055e-001  1.5799105e+000
  6.7943513e-001  1.7012479e+000
  5.8178978e-001  1.4399267e+000
  3.8979479e-001  9.1448999e-001
  1.8154474e-001  3.4333817e-001
  2.5284253e-002 -7.0267350e-002
 -5.0684688e-002 -2.3442475e-001
 -6.1884008e-002 -1.9312920e-001
 -4.7298671e-002 -7.3549065e-002
 -4.0885421e-002  2.7371711e-003
 -5.3464203e-002 -1.3379608e-002
 -7.3872319e-002 -8.9818373e-002
 -8.4215762e-002 -1.5702541e-001
 -7.5872555e-002 -1.6592685e-001
 -5.5019998e-002 -1.1910845e-001
 -3.5866395e-002 -5.9154488e-002
 -2.8949127e-002 -3.0238907e-002
 -3.4019312e-002 -4.5124697e-002
 -4.2180116e-002 -8.0776771e-002
 -4.4128836e-002 -1.0143125e-001
 -3.7322251e-002 -8.7931089e-002
 -2.6687053e-002 -5.0374451e-002
 -1.9320803e-002 -1.6661386e-002
 -1.8377250e-002 -8.6872965e-003
 -2.1124634e-002 -2.5974101e-002
 -2.2258404e-002 -4.8554026e-002
 -1.8946907e-002 -5.4785516e-002
 -1.3160124e-002 -3.8514900e-002
 -9.4706381e-003 -1.2321464e-002
 -1.0466695e-002  4.4983436e-003
 -1.4021657e-002  2.2437869e-003
 -1.4959712e-002 -1.1854253e-002
 -9.5589751e-003 -2.0503995e-002
  9.7761580e-004 -1.0892301e-002
  1.1082652e-002  1.5182629e-002
  1.5234820e-002  4.3428530e-002
  1.2523307e-002  5.9040092e-002
  7.6960753e-003  5.8385392e-002
  7.6457631e-003  5.1230131e-002
  1.6021750e-002  5.2255641e-002
  3.0198718e-002  6.9163553e-002
  4.3049736e-002  9.6904305e-002
  4.8188641e-002  1.2216963e-001
  4.4659561e-002  1.3401010e-001
  3.7475570e-002  1.3191064e-001
  3.3703952e-002  1.2515967e-001
  3.7064790e-002  1.2453675e-001
  4.5107213e-002  1.3324115e-001
  5.0963638e-002  1.4420341e-001
  4.8313039e-002  1.4549068e-001
  3.5800982e-002  1.2924213e-001
  1.7823998e-002  9.7241459e-002
  1.3664293e-003  5.9206962e-002
 -8.6183307e-003  2.5749790e-002
 -1.1901452e-002  1.7219224e-003
 -1.2242396e-002 -1.5328800e-002
 -1.4119469e-002 -3.1151284e-002
 -1.9585392e-002 -4.9125331e-002
 -2.7274452e-002 -6.7517651e-002
 -3.4015436e-002 -8.1459128e-002
 -3.7374456e-002 -8.7414492e-002
 -3.7163077e-002 -8.6214722e-002
 -3.5136985e-002 -8.2375026e-002
 -3.3402355e-002 -8.0499018e-002
 -3.3013769e-002 -8.1985105e-002
 -3.3604698e-002 -8.4557000e-002
 -3.4064195e-002 -8.4764575e-002
 -3.3465666e-002 -8.1074037e-002
 -3.1571092e-002 -7.5047403e-002
 -2.8710403e-002 -6.9818272e-002
 -2.5467124e-002 -6.7420828e-002
 -2.2507292e-002 -6.7302150e-002
 -2.0564708e-002 -6.7137340e-002
 -2.0242525e-002 -6.5103143e-002
 -2.1557937e-002 -6.1539508e-002
 -2.3554044e-002 -5.8574283e-002
 -2.4553914e-002 -5.8131192e-002
 -2.3160382e-002 -6.0071986e-002
 -1.9356969e-002 -6.2040287e-002
 -1.4963316e-002 -6.1284170e-002
 -1.2684500e-002 -5.6923283e-002
 -1.4262344e-002 -5.0851286e-002
 -1.8989434e-002 -4.6554320e-002
 -2.3796192e-002 -4.6620557e-002
 -2.5155273e-002 -5.0834073e-002
 -2.1583646e-002 -5.6237329e-002
 -1.4967552e-002 -5.9117094e-002
 -9.6277338e-003 -5.7474429e-002
 -9.5560099e-003 -5.2313224e-002
 -1.5621809e-002 -4.6869888e-002
 -2.4733706e-002 -4.4409389e-002
 -3.1640977e-002 -4.6072693e-002
 -3.2341505e-002 -5.0240907e-002
 -2.6766827e-002 -5.3775518e-002
 -1.8921237e-002 -5.4217471e-002
 -1.4326646e-002 -5.1519595e-002
 -1.6372521e-002 -4.7998485e-002
 -2.4014093e-002 -4.6608364e-002
 -3.2276596e-002 -4.8641903e-002
 -3.5398603e-002 -5.2537813e-002
 -3.0610321e-002 -5.4782455e-002
 -2.0039160e-002 -5.2394891e-002
 -9.5267833e-003 -4.5356549e-002
 -5.0841677e-003 -3.7100650e-002
 -9.2248463e-003 -3.2490199e-002
 -1.9477659e-002 -3.4499415e-002
 -3.0035004e-002 -4.1949632e-002
 -3.5459625e-002 -5.0130358e-002
 -3.4015725e-002 -5.4065684e-002
 -2.8437144e-002 -5.2166178e-002
 -2.3639687e-002 -4.7446049e-002
 -2.3052693e-002 -4.5130461e-002
 -2.6154618e-002 -4.8382348e-002
 -2.8978970e-002 -5.5375178e-002
 -2.7346272e-002 -6.0348499e-002
 -2.0419622e-002 -5.8213480e-002
 -1.1933399e-002 -4.9191779e-002
 -7.8804885e-003 -3.9624314e-002
 -1.2086199e-002 -3.7641753e-002
 -2.3000745e-002 -4.6793500e-002
 -3.4145199e-002 -6.2391962e-002
 -3.8297749e-002 -7.4135863e-002
 -3.2563548e-002 -7.3497679e-002
 -2.0668479e-002 -6.0500882e-002
 -1.0560277e-002 -4.4400819e-002
 -8.8283317e-003 -3.7201808e-002
 -1.5938081e-002 -4.4579812e-002
 -2.5886363e-002 -6.1204716e-002
 -3.0698677e-002 -7.4325698e-002
 -2.6469632e-002 -7.3287884e-002
 -1.6422504e-002 -5.7661159e-002
 -8.5439619e-003 -3.7464477e-002
 -9.4358907e-003 -2.5053328e-002
 -1.9003850e-002 -2.4916161e-002
 -3.0164325e-002 -2.9752136e-002
 -3.3917106e-002 -2.6297570e-002
 -2.6065073e-002 -6.6440967e-003
 -1.0244627e-002  2.4149713e-002
  5.0142249e-003  5.0641376e-002
  1.2936388e-002  5.8336602e-002
  1.3441453e-002  4.4860559e-002
  1.2350410e-002  2.1697670e-002
  1.5441701e-002  4.6813703e-003
  2.2313976e-002  6.9369280e-004
  2.5586469e-002  1.7909843e-003
  1.6766988e-002 -7.6909578e-003
 -5.6290452e-003 -3.6379691e-002
 -3.2636270e-002 -7.5894821e-002
 -4.9850369e-002 -1.0528138e-001
 -4.7905866e-002 -1.0766774e-001
 -3.0460349e-002 -8.6001388e-002
 -1.2645085e-002 -6.3557996e-002
 -1.0031956e-002 -6.6316251e-002
 -2.5979758e-002 -9.9860591e-002
 -4.7669114e-002 -1.4044933e-001
 -5.5423070e-002 -1.5103538e-001
 -3.9445945e-002 -1.1319760e-001
 -1.1046813e-002 -5.0229685e-002
  2.2412641e-003 -1.8840548e-002
 -2.2899565e-002 -6.8008837e-002
 -8.2706792e-002 -1.9043813e-001
 -1.3849679e-001 -3.0362889e-001
 -1.3321132e-001 -2.8310547e-001
 -2.5424801e-002 -3.5966283e-002
  1.7960763e-001  4.2827111e-001
  4.2285741e-001  9.7754296e-001
  6.1596051e-001  1.4086884e+000
  6.8474527e-001  1.5467367e+000
  6.0695261e-001  1.3361858e+000
  4.2201880e-001  8.7027698e-001
  2.0783989e-001  3.4063528e-001
  3.9291088e-002 -6.2536880e-002
 -4.6723824e-002 -2.4110086e-001
 -6.0586192e-002 -2.2025255e-001
 -4.1987413e-002 -1.0928716e-001
 -2.9616654e-002 -2.3677608e-002
 -3.8925078e-002 -1.9730287e-002
 -6.0017696e-002 -7.8438172e-002
 -7.2960666e-002 -1.3935148e-001
 -6.6456678e-002 -1.5322830e-001
 -4.6131258e-002 -1.1539398e-001
 -2.8097428e-002 -6.0846278e-002
 -2.4896740e-002 -3.1307550e-002
 -3.5681539e-002 -4.2683648e-002
 -4.7849908e-002 -7.6577321e-002
 -4.7869280e-002 -9.8861000e-002
 -3.2173305e-002 -8.7951839e-002
 -9.7318318e-003 -5.0311028e-002
  5.2848204e-003 -1.2864031e-002
  4.4837614e-003 -4.0944732e-004
 -8.7382828e-003 -1.6797983e-002
 -2.2341580e-002 -4.3794461e-002
 -2.5034389e-002 -5.6874698e-002
 -1.4453158e-002 -4.4430057e-002
  1.9309214e-003 -1.5371267e-002
  1.3270882e-002  9.6343404e-003
  1.3737828e-002  1.5139815e-002
  6.4151886e-003  2.4097786e-003
  1.5470059e-004 -1.2965433e-002
  2.3837537e-003 -1.4244880e-002
  1.3646790e-002  3.5519476e-003
  2.7937850e-002  3.0979718e-002
  3.7980518e-002  5.2899568e-002
  4.0857422e-002  6.0806393e-002
  3.9666130e-002  5.8854898e-002
  4.0155391e-002  5.9265933e-002
  4.5593695e-002  7.1719225e-002
  5.4113715e-002  9.5537351e-002
  6.0585876e-002  1.2076214e-001
  6.1240551e-002  1.3660165e-001
  5.7108649e-002  1.3996632e-001
  5.3232285e-002  1.3707624e-001
  5.4345159e-002  1.3721702e-001
  6.0486791e-002  1.4404097e-001
  6.6275831e-002  1.5175033e-001
  6.4494652e-002  1.4926122e-001
  5.1365343e-002  1.2894335e-001
  2.9588896e-002  9.2970225e-002
  6.7931664e-003  5.2272381e-002
 -9.4572684e-003  1.9035220e-002
 -1.6397712e-002 -1.2983619e-003
 -1.7208135e-002 -1.2537284e-002
 -1.7926347e-002 -2.3206297e-002
 -2.2716562e-002 -3.9003288e-002
 -3.1040497e-002 -5.8358939e-002
 -3.8592660e-002 -7.4364711e-002
 -4.0978900e-002 -8.1099519e-002
 -3.7229287e-002 -7.8976290e-002
 -3.0525514e-002 -7.4640228e-002
 -2.5772356e-002 -7.5607348e-002
 -2.6077636e-002 -8.4121046e-002
 -3.0774550e-002 -9.5215058e-002
 -3.6296958e-002 -1.0063158e-001
 -3.8913435e-002 -9.5464117e-002
 -3.7116917e-002 -8.2201427e-002
 -3.2119656e-002 -6.9024120e-002
 -2.6394359e-002 -6.3667497e-002
 -2.1751321e-002 -6.7678701e-002
 -1.8523375e-002 -7.5581046e-002
 -1.6218051e-002 -7.9466756e-002
 -1.4777426e-002 -7.5401355e-002
 -1.4967634e-002 -6.6484356e-002
 -1.7510878e-002 -6.0214473e-002
 -2.1766563e-002 -6.2245363e-002
 -2.5405931e-002 -7.1511103e-002
 -2.5680954e-002 -8.0675736e-002
 -2.1486456e-002 -8.1644957e-002
 -1.4575103e-002 -7.1904048e-002
 -8.7447170e-003 -5.6754593e-002
 -7.3012032e-003 -4.5576801e-002
 -1.0596435e-002 -4.4922956e-002
 -1.5627688e-002 -5.3641739e-002
 -1.8180384e-002 -6.3859081e-002
 -1.6001310e-002 -6.7034404e-002
 -1.0646680e-002 -6.0528916e-002
 -6.4751454e-003 -4.9616884e-002
 -7.4473108e-003 -4.3420169e-002
 -1.4046319e-002 -4.7877534e-002
 -2.2612606e-002 -6.1132479e-002
 -2.7874681e-002 -7.4940867e-002
 -2.6766933e-002 -8.0966185e-002
 -2.0767233e-002 -7.7147757e-002
 -1.4883198e-002 -6.9102951e-002
 -1.4012302e-002 -6.5530261e-002
 -1.9331303e-002 -7.1126913e-002
 -2.7390679e-002 -8.2684868e-002
 -3.2639911e-002 -9.1477140e-002
 -3.1513902e-002 -9.0192139e-002
 -2.5013507e-002 -7.8989166e-002
 -1.7797974e-002 -6.5774890e-002
 -1.4531637e-002 -6.0289593e-002
 -1.6337095e-002 -6.6496824e-002
 -2.0157536e-002 -7.9316660e-002
 -2.1494640e-002 -8.8482737e-002
 -1.8318073e-002 -8.6655500e-002
 -1.3009639e-002 -7.5482516e-002
 -1.0639633e-002 -6.4594083e-002
 -1.4794338e-002 -6.4107930e-002
 -2.4281296e-002 -7.6344818e-002
 -3.3472446e-002 -9.3406456e-002
 -3.6300718e-002 -1.0289067e-001
 -3.0931260e-002 -9.7504100e-002
 -2.1399176e-002 -8.1138663e-002
 -1.4779658e-002 -6.6302347e-002
 -1.5938638e-002 -6.4630209e-002
 -2.3764214e-002 -7.7639347e-002
 -3.1987479e-002 -9.5158661e-002
 -3.4043382e-002 -1.0291269e-001
 -2.8273736e-002 -9.3512163e-002
 -1.9313562e-002 -7.2216500e-002
 -1.4379074e-002 -5.2652354e-002
 -1.7376381e-002 -4.5717870e-002
 -2.5456395e-002 -5.0510617e-002
 -3.0994490e-002 -5.4798068e-002
 -2.7578629e-002 -4.5110513e-002
 -1.5337119e-002 -1.8539024e-002
 -1.2026356e-003  1.3486031e-002
  6.4100972e-003  3.2977042e-002
  4.3713592e-003  2.9074896e-002
 -2.4940909e-003  6.5966158e-003
 -5.3563753e-003 -1.7780692e-002
  8.3291323e-004 -2.9252956e-002
  1.2166527e-002 -2.7400621e-002
  1.7825377e-002 -2.6892974e-002
  8.4566872e-003 -4.4777592e-002
 -1.5310885e-002 -8.4231691e-002
 -4.1559269e-002 -1.2866797e-001
 -5.4802578e-002 -1.5259629e-001
 -4.7638929e-002 -1.4197230e-001
 -2.7296535e-002 -1.0784493e-001
 -1.1123225e-002 -8.0461305e-002
 -1.3509413e-002 -8.6161695e-002
 -3.3979081e-002 -1.2425121e-001
 -5.6249851e-002 -1.6380558e-001
 -6.0527428e-002 -1.6658536e-001
 -4.0572068e-002 -1.2099233e-001
 -1.2143421e-002 -6.0021730e-002
 -4.1060541e-003 -4.3988397e-002
 -3.6098244e-002 -1.1390424e-001
 -9.7852611e-002 -2.4613987e-001
 -1.4663235e-001 -3.4452752e-001
 -1.2831527e-001 -2.8504282e-001
 -1.1447080e-002  7.4118425e-003
  1.8697077e-001  4.9671410e-001
  4.0221112e-001  1.0313069e+000
  5.5144266e-001  1.4086391e+000
  5.7613857e-001  1.4757795e+000
  4.7236686e-001  1.2089195e+000
  2.9105130e-001  7.2496687e-001
  1.0872510e-001  2.1864649e-001
 -1.2955656e-002 -1.3725976e-001
 -5.4946248e-002 -2.7067095e-001
 -4.1265809e-002 -2.2603160e-001
 -1.5503728e-002 -1.1580861e-001
 -1.0854485e-002 -4.4330189e-002
 -3.2927647e-002 -5.2461951e-002
 -6.3667092e-002 -1.1210149e-001
 -7.9934203e-002 -1.6426424e-001
 -7.1706467e-002 -1.6803455e-001
 -4.7569820e-002 -1.2627922e-001
 -2.5803521e-002 -7.5232894e-002
 -1.9746126e-002 -5.1891371e-002
 -2.8889780e-002 -6.6259058e-002
 -4.1467062e-002 -9.7864534e-002
 -4.5034355e-002 -1.1558997e-001
 -3.6066462e-002 -1.0287528e-001
 -2.1417439e-002 -6.8678590e-002
 -1.1600665e-002 -3.7693611e-002
 -1.1980554e-002 -2.9530742e-002
 -1.8995831e-002 -4.4018651e-002
 -2.3862725e-002 -6.3276210e-002
 -2.0170796e-002 -6.7345077e-002
 -8.9507341e-003 -5.0047662e-002
  2.6771168e-003 -2.2727728e-002
  7.7683923e-003 -3.9486766e-003
  5.3768196e-003 -4.1893686e-003
  1.1485471e-003 -1.7936899e-002
  2.4973780e-003 -2.8753790e-002
  1.2360721e-002 -2.2699343e-002
  2.6711297e-002  9.2704805e-004
  3.7665358e-002  2.9668067e-002
  3.9679786e-002  4.8142085e-002
  3.3893394e-002  4.9849781e-002
  2.7204699e-002  4.1498281e-002
  2.7048702e-002  3.7015590e-002
  3.5890509e-002  4.6478931e-002
  4.9691987e-002  6.8817037e-002
  6.1295039e-002  9.3629120e-002
  6.5799710e-002  1.0986728e-001
  6.3778514e-002  1.1413744e-001
  6.0001365e-002  1.1212003e-001
  5.9048458e-002  1.1254612e-001
  6.1377627e-002  1.1897749e-001
  6.2977629e-002  1.2620243e-001
  5.8666754e-002  1.2404774e-001
  4.6259411e-002  1.0543499e-001
  2.8246262e-002  7.2244224e-002
  9.9149426e-003  3.4453451e-002
 -4.4204866e-003  3.3604519e-003
 -1.4024122e-002 -1.5776010e-002
 -2.1260808e-002 -2.6190098e-002
 -2.8683902e-002 -3.5649500e-002
 -3.6357251e-002 -4.9605543e-002
 -4.1695546e-002 -6.6917503e-002
 -4.1927546e-002 -8.1317444e-002
 -3.7003185e-002 -8.7047057e-002
 -3.0369766e-002 -8.3952485e-002
 -2.6821081e-002 -7.7845562e-002
 -2.9013791e-002 -7.5965628e-002
 -3.5382496e-002 -8.1217615e-002
 -4.1162138e-002 -8.9858943e-002
 -4.1884209e-002 -9.4496280e-002
 -3.6635267e-002 -9.0052211e-002
 -2.8655616e-002 -7.8007031e-002
 -2.2808038e-002 -6.5603490e-002
 -2.1967166e-002 -6.0515538e-002
 -2.5094016e-002 -6.5138332e-002
 -2.8370822e-002 -7.4795436e-002
 -2.8383610e-002 -8.1237217e-002
 -2.4827001e-002 -7.8782486e-002
 -2.0613196e-002 -6.8440892e-002
 -1.9321560e-002 -5.6981838e-002
 -2.2119092e-002 -5.1743395e-002
 -2.6641151e-002 -5.5144810e-002
 -2.8811622e-002 -6.3095425e-002
 -2.6101245e-002 -6.8324064e-002
 -1.9660133e-002 -6.6015168e-002
 -1.3594501e-002 -5.7382729e-002
 -1.1888366e-002 -4.8486508e-002
 -1.5329872e-002 -4.5334086e-002
 -2.0830254e-002 -4.9121713e-002
 -2.3790565e-002 -5.5365281e-002
 -2.1728727e-002 -5.7594027e-002
 -1.6364264e-002 -5.2678741e-002
 -1.2473975e-002 -4.3586444e-002
 -1.4348730e-002 -3.7345495e-002
 -2.2449601e-002 -3.9671367e-002
 -3.2793707e-002 -5.0461221e-002
 -3.9523640e-002 -6.3620364e-002
 -3.8906714e-002 -7.1446084e-002
 -3.1828842e-002 -7.0209920e-002
 -2.2985973e-002 -6.2651548e-002
 -1.7536404e-002 -5.5533917e-002
 -1.7676306e-002 -5.4231036e-002
 -2.1686299e-002 -5.8757148e-002
 -2.5864276e-002 -6.4309330e-002
 -2.7691032e-002 -6.5865631e-002
 -2.7650379e-002 -6.2845676e-002
 -2.8377428e-002 -5.9866235e-002
 -3.1876901e-002 -6.2666303e-002
 -3.7241224e-002 -7.2528563e-002
 -4.0889941e-002 -8.4005701e-002
 -3.9275436e-002 -8.8359439e-002
 -3.1923975e-002 -8.0427854e-002
 -2.2321185e-002 -6.3565328e-002
 -1.5796296e-002 -4.8275990e-002
 -1.5873705e-002 -4.4988237e-002
 -2.1792135e-002 -5.6205216e-002
 -2.9127927e-002 -7.4198643e-002
 -3.3128809e-002 -8.6463894e-002
 -3.2179398e-002 -8.5089758e-002
 -2.8723114e-002 -7.2823687e-002
 -2.6955101e-002 -6.0974178e-002
 -2.9167422e-002 -6.0430369e-002
 -3.3773366e-002 -7.2755008e-002
 -3.6559091e-002 -8.8431977e-002
 -3.4251276e-002 -9.3989737e-002
 -2.7490836e-002 -8.2561122e-002
 -2.0634570e-002 -5.9457788e-002
 -1.8400406e-002 -3.8071035e-002
 -2.1913398e-002 -2.9067514e-002
 -2.7468733e-002 -3.1563610e-002
 -2.9169344e-002 -3.3635748e-002
 -2.3538264e-002 -2.2299481e-002
 -1.2363978e-002  4.8929666e-003
 -1.4536295e-003  3.6166044e-002
  3.8870304e-003  5.3412220e-002
  3.0273093e-003  4.5829366e-002
  2.8643670e-004  1.8464028e-002
  9.1702009e-004 -1.1587641e-002
  5.9264815e-003 -2.8780865e-002
  1.0395636e-002 -3.1514825e-002
  7.1662317e-003 -3.2850186e-002
 -6.6403149e-003 -4.8376582e-002
 -2.5732599e-002 -8.0932668e-002
 -3.9226572e-002 -1.1564031e-001
 -3.8556588e-002 -1.3074242e-001
 -2.4944360e-002 -1.1655970e-001
 -9.9900862e-003 -8.6537163e-002
 -7.6333890e-003 -6.9289050e-002
 -2.2890469e-002 -8.5571749e-002
 -4.6102549e-002 -1.2809769e-001
 -5.8687036e-002 -1.6269170e-001
 -4.7494099e-002 -1.5422774e-001
 -1.7626192e-002 -9.9476426e-002
  7.1743414e-003 -3.9592987e-002
 -3.0966801e-004 -3.6025065e-002
 -4.8476775e-002 -1.2041886e-001
 -1.1306459e-001 -2.5284317e-001
 -1.4397151e-001 -3.2372536e-001
 -9.2066346e-002 -2.0915509e-001
  5.8785745e-002  1.4812291e-001
  2.7473113e-001  6.8287523e-001
  4.8261537e-001  1.2180963e+000
  6.0435891e-001  1.5445814e+000
  5.9604005e-001  1.5274483e+000
  4.6910325e-001  1.1776830e+000
  2.8174287e-001  6.4576480e-001
  1.0650248e-001  1.4111884e-001
 -6.0707744e-003 -1.7438696e-001
 -4.6981792e-002 -2.5716898e-001
 -4.2716636e-002 -1.8017724e-001
 -3.1045715e-002 -6.8492409e-002
 -3.5992343e-002 -1.8450023e-002
 -5.7376770e-002 -5.0804101e-002
 -7.8469829e-002 -1.2010607e-001
 -8.3147184e-002 -1.6370035e-001
 -6.8893985e-002 -1.5081523e-001
 -4.7200154e-002 -9.8761400e-002
 -3.3184893e-002 -5.1126890e-002
 -3.3804630e-002 -4.0315674e-002
 -4.3641227e-002 -6.4423418e-002
 -5.0626129e-002 -9.3627175e-002
 -4.6241502e-002 -9.7302829e-002
 -3.1928097e-002 -6.8538301e-002
 -1.7114842e-002 -2.7407427e-002
 -1.1201550e-002 -2.7567012e-003
 -1.6246758e-002 -8.7489682e-003
 -2.6008335e-002 -3.4988807e-002
 -3.1495621e-002 -5.6696631e-002
 -2.8153066e-002 -5.5226627e-002
 -1.8904748e-002 -3.1926690e-002
 -1.0967410e-002 -4.9973153e-003
 -9.3925703e-003  6.7575806e-003
 -1.2831262e-002 -6.8651119e-004
 -1.4901209e-002 -1.4344334e-002
 -9.8131373e-003 -1.6017141e-002
  2.4507462e-003  2.2896045e-003
  1.5685653e-002  3.2064078e-002
  2.2179592e-002  5.5798319e-002
  1.8778882e-002  6.1502970e-002
  9.5956569e-003  5.2218822e-002
  3.1615523e-003  4.2950888e-002
  6.2849416e-003  4.8125466e-002
  1.9187229e-002  7.0011805e-002
  3.5600274e-002  9.7473420e-002
  4.7488048e-002  1.1557458e-001
  5.0697140e-002  1.1780054e-001
  4.7290208e-002  1.1080328e-001
  4.3075863e-002  1.0802818e-001
  4.2608719e-002  1.1775436e-001
  4.5544668e-002  1.3547063e-001
  4.7081452e-002  1.4676964e-001
  4.1976693e-002  1.3837813e-001
  2.8880386e-002  1.0842188e-001
  1.1617546e-002  6.7872474e-002
 -3.3775194e-003  3.2369240e-002
 -1.1454722e-002  1.1110771e-002
 -1.2631114e-002  1.4965653e-003
 -1.1067749e-002 -6.7645733e-003
 -1.1761232e-002 -2.2101175e-002
 -1.7019497e-002 -4.4047247e-002
 -2.5198096e-002 -6.4128622e-002
 -3.2307901e-002 -7.3398290e-002
 -3.5028616e-002 -7.0012421e-002
 -3.2802508e-002 -6.0526274e-002
 -2.7763326e-002 -5.4348773e-002
 -2.2895529e-002 -5.6175474e-002
 -2.0134512e-002 -6.2933094e-002
 -1.9488401e-002 -6.7268408e-002
 -1.9789754e-002 -6.4580940e-002
 -1.9960157e-002 -5.7174428e-002
 -1.9797047e-002 -5.2183269e-002
 -1.9770551e-002 -5.5201904e-002
 -2.0213483e-002 -6.5139853e-002
 -2.0770291e-002 -7.4770305e-002
 -2.0568722e-002 -7.6536328e-002
 -1.8909043e-002 -6.8728542e-002
 -1.5891061e-002 -5.6897933e-002
 -1.2522585e-002 -4.9331044e-002
 -1.0243113e-002 -5.0384474e-002
 -1.0164056e-002 -5.7144768e-002
 -1.2497190e-002 -6.2141201e-002
 -1.6384622e-002 -5.9665739e-002
 -2.0221350e-002 -5.0459386e-002
 -2.2257856e-002 -4.0926217e-002
 -2.1293210e-002 -3.7697580e-002
 -1.7297397e-002 -4.2241129e-002
 -1.1593934e-002 -4.9926891e-002
 -6.3327688e-003 -5.4172811e-002
 -3.4344106e-003 -5.2008584e-002
 -3.5111766e-003 -4.6309370e-002
 -5.5298839e-003 -4.2933476e-002
 -7.5488411e-003 -4.5430260e-002
 -8.1325285e-003 -5.1979369e-002
 -7.4206918e-003 -5.7115482e-002
 -7.0644722e-003 -5.6690320e-002
 -8.9042745e-003 -5.1616536e-002
 -1.3263543e-002 -4.7015357e-002
 -1.8355773e-002 -4.7571940e-002
 -2.1374326e-002 -5.3178984e-002
 -2.0591145e-002 -5.8891479e-002
 -1.6835085e-002 -5.9381775e-002
 -1.3143634e-002 -5.4047929e-002
 -1.2638743e-002 -4.8115746e-002
 -1.6123983e-002 -4.8401084e-002
 -2.1287211e-002 -5.7113829e-002
 -2.4280004e-002 -6.9121095e-002
 -2.2614032e-002 -7.5436828e-002
 -1.7162141e-002 -7.0475025e-002
 -1.1663170e-002 -5.7163532e-002
 -1.0046882e-002 -4.5363837e-002
 -1.3566011e-002 -4.4406601e-002
 -1.9937606e-002 -5.5605970e-002
 -2.5136978e-002 -7.0869089e-002
 -2.6504313e-002 -7.8894281e-002
 -2.4632815e-002 -7.4121858e-002
 -2.2583169e-002 -6.1259590e-002
 -2.3050972e-002 -5.1549219e-002
 -2.5904054e-002 -5.3629295e-002
 -2.8193488e-002 -6.6388256e-002
 -2.6722775e-002 -7.9727871e-002
 -2.1083556e-002 -8.2772106e-002
 -1.4527988e-002 -7.2828615e-002
 -1.1783413e-002 -5.7787484e-002
 -1.5238831e-002 -4.9735048e-002
 -2.2669662e-002 -5.5042956e-002
 -2.8479992e-002 -6.9026029e-002
 -2.7828928e-002 -7.9771487e-002
 -2.0492587e-002 -7.8081708e-002
 -1.1346539e-002 -6.5289428e-002
 -6.9494512e-003 -5.2359845e-002
 -1.0585110e-002 -5.0726347e-002
 -1.9646706e-002 -6.2484026e-002
 -2.7434514e-002 -7.8218434e-002
 -2.8141811e-002 -8.4611264e-002
 -2.1310521e-002 -7.5775138e-002
 -1.2236459e-002 -5.8779680e-002
 -7.9444674e-003 -4.8339408e-002
 -1.1806977e-002 -5.4592176e-002
 -2.0953520e-002 -7.3956324e-002
 -2.8451341e-002 -9.0973901e-002
 -2.8565718e-002 -9.0203194e-002
 -2.1089207e-002 -6.8702796e-002
 -1.1342064e-002 -3.8773775e-002
 -5.9807260e-003 -1.8225470e-002
 -7.8535058e-003 -1.5796243e-002
 -1.4042262e-002 -2.3753232e-002
 -1.8405113e-002 -2.4360001e-002
 -1.6433856e-002 -5.3548362e-003
 -8.4451859e-003  2.8225206e-002
  1.1945222e-003  5.6173523e-002
  8.0561540e-003  5.8330867e-002
  1.1105642e-002  3.0971016e-002
  1.2641931e-002 -9.3005942e-003
  1.4969102e-002 -3.8062817e-002
  1.6894114e-002 -4.2504542e-002
  1.3812081e-002 -3.1850121e-002
  1.8611369e-003 -2.9507380e-002
 -1.7213969e-002 -5.2639524e-002
 -3.5127329e-002 -9.5929870e-002
 -4.1859815e-002 -1.3387750e-001
 -3.3308524e-002 -1.4127233e-001
 -1.5654663e-002 -1.1559488e-001
 -2.1721768e-003 -8.1900874e-002
 -3.7564029e-003 -7.3822936e-002
 -1.9995132e-002 -1.0444109e-001
 -3.8378461e-002 -1.5149961e-001
 -4.3583450e-002 -1.7239933e-001
 -3.0792422e-002 -1.4084927e-001
 -1.2449228e-002 -7.6513309e-002
 -1.1318524e-002 -3.9595276e-002
 -4.2286175e-002 -8.6288968e-002
 -9.4887449e-002 -2.1288519e-001
 -1.3039275e-001 -3.3165324e-001
 -9.9318079e-002 -3.0584073e-001
  2.8496642e-002 -3.1798691e-002
  2.3921137e-001  4.8048955e-001
  4.7267176e-001  1.0839220e+000
  6.4677886e-001  1.5520682e+000
  6.9662803e-001  1.6914406e+000
  6.0661991e-001  1.4442307e+000
  4.1719906e-001  9.1983440e-001
  2.0272038e-001  3.3572077e-001
  3.3742870e-002 -9.6924553e-002
 -5.4451526e-002 -2.7497055e-001
 -7.0670787e-002 -2.3565775e-001
 -5.2121289e-002 -1.0817515e-001
 -3.6918497e-002 -2.2732758e-002
 -4.2647302e-002 -3.6816498e-002
 -6.2461896e-002 -1.2016292e-001
 -7.7564170e-002 -1.9748871e-001
 -7.4609901e-002 -2.1128388e-001
 -5.5440994e-002 -1.5979473e-001
 -3.3666238e-002 -8.8711822e-002
 -2.2905481e-002 -5.0183304e-002
 -2.6460592e-002 -6.3381682e-002
 -3.6039395e-002 -1.0504595e-001
 -3.9443033e-002 -1.3292695e-001
 -3.0602207e-002 -1.2063749e-001
 -1.4107831e-002 -7.6521686e-002
 -1.1730435e-003 -3.4020843e-002
 -6.4266121e-004 -2.3634115e-002
 -1.2162445e-002 -4.9481179e-002
 -2.6563689e-002 -8.7834328e-002
 -3.2774202e-002 -1.0692010e-001
 -2.5846941e-002 -9.1276355e-002
 -1.0129149e-002 -5.1840209e-002
  4.3898958e-003 -1.5434330e-002
  9.5059454e-003 -3.2559267e-003
  4.4076959e-003 -1.5604965e-002
 -4.4273968e-003 -3.3821272e-002
 -8.5706999e-003 -3.6476791e-002
 -3.8150400e-003 -1.6170304e-002
  7.3061164e-003  1.6019202e-002
  1.8098938e-002  4.0772226e-002
  2.3000611e-002  4.6365547e-002
  2.1481457e-002  3.7330208e-002
  1.7890152e-002  2.9756681e-002
  1.7694260e-002  3.7845230e-002
  2.3316048e-002  6.2837576e-002
  3.2734202e-002  9.2845901e-002
  4.1505096e-002  1.1285444e-001
  4.6284936e-002  1.1634820e-001
  4.6927874e-002  1.0926782e-001
  4.5776833e-002  1.0369263e-001
  4.5053378e-002  1.0704361e-001
  4.4689430e-002  1.1574883e-001
  4.2454735e-002  1.1836655e-001
  3.6109126e-002  1.0518061e-001
  2.5739102e-002  7.6292018e-002
  1.4100393e-002  4.1680287e-002
  4.7266702e-003  1.3536575e-002
 -6.9646371e-004 -2.7530193e-003
 -3.5036219e-003 -1.1679193e-002
 -6.7779986e-003 -2.2558159e-002
 -1.2726766e-002 -4.0868811e-002
 -2.0792843e-002 -6.3230033e-002
 -2.8033129e-002 -8.0155983e-002
 -3.1526044e-002 -8.4169489e-002
 -3.0863896e-002 -7.6509025e-002
 -2.8590011e-002 -6.6741376e-002
 -2.8195077e-002 -6.5430296e-002
 -3.1228417e-002 -7.5708169e-002
 -3.5919241e-002 -9.0565132e-002
 -3.8395796e-002 -9.8167835e-002
 -3.5695925e-002 -9.1130485e-002
 -2.8221486e-002 -7.2490644e-002
 -1.9669633e-002 -5.3642899e-002
 -1.4427227e-002 -4.5858920e-002
 -1.4370563e-002 -5.1964830e-002
 -1.7606354e-002 -6.4560958e-002
 -2.0089559e-002 -7.2060834e-002
 -1.8833118e-002 -6.7752193e-002
 -1.4258907e-002 -5.4806785e-002
 -9.8053228e-003 -4.3359540e-002
 -9.1779916e-003 -4.2270953e-002
 -1.3354551e-002 -5.2006813e-002
 -1.9638664e-002 -6.4225452e-002
 -2.3648109e-002 -6.8299779e-002
 -2.2613331e-002 -5.9613629e-002
 -1.7386182e-002 -4.3098178e-002
 -1.1597933e-002 -2.9409583e-002
 -8.7444949e-003 -2.6857974e-002
 -9.4434488e-003 -3.5305014e-002
 -1.1114906e-002 -4.6707740e-002
 -1.0305542e-002 -5.1616265e-002
 -5.8627920e-003 -4.6421216e-002
 -2.8009472e-004 -3.5745653e-002
  1.9713316e-003 -2.8277664e-002
 -2.0265247e-003 -2.9615946e-002
 -1.1007341e-002 -3.7884787e-002
 -1.9972215e-002 -4.5522850e-002
 -2.3537629e-002 -4.5655923e-002
 -1.9824100e-002 -3.7877730e-002
 -1.1892728e-002 -2.8692974e-002
 -5.6339492e-003 -2.6308822e-002
 -5.5442101e-003 -3.3980651e-002
 -1.1420752e-002 -4.7193657e-002
 -1.8518831e-002 -5.6975153e-002
 -2.1010842e-002 -5.6759550e-002
 -1.6288252e-002 -4.7413060e-002
 -6.9503197e-003 -3.6534128e-002
  8.8564131e-004 -3.2686328e-002
  1.7544356e-003 -3.9033272e-002
 -5.4820810e-003 -5.1320550e-002
 -1.6902378e-002 -6.1471002e-002
 -2.6133737e-002 -6.3764325e-002
 -2.8397111e-002 -5.8708074e-002
 -2.3214380e-002 -5.1807248e-002
 -1.4096194e-002 -4.8574049e-002
 -5.9473236e-003 -5.0182318e-002
 -2.0993279e-003 -5.3224907e-002
 -2.8861881e-003 -5.3462132e-002
 -6.2965648e-003 -5.0080767e-002
 -9.8346258e-003 -4.6596633e-002
 -1.2062101e-002 -4.7560933e-002
 -1.2920850e-002 -5.3976049e-002
 -1.3062778e-002 -6.1653169e-002
 -1.3024209e-002 -6.4220950e-002
 -1.2972515e-002 -5.8586738e-002
 -1.2894064e-002 -4.8146468e-002
 -1.2838691e-002 -4.0697072e-002
 -1.2865576e-002 -4.2411574e-002
 -1.2803434e-002 -5.2543164e-002
 -1.2321733e-002 -6.3560106e-002
 -1.1292190e-002 -6.6912112e-002
 -1.0244323e-002 -6.0100441e-002
 -1.0255025e-002 -4.9215216e-002
 -1.2146430e-002 -4.4407314e-002
 -1.5586531e-002 -5.1729369e-002
 -1.8853917e-002 -6.7714579e-002
 -1.9807965e-002 -8.1420572e-002
 -1.7510629e-002 -8.2795691e-002
 -1.3120139e-002 -7.0794434e-002
 -9.3031518e-003 -5.4694833e-002
 -8.4403009e-003 -4.7180604e-002
 -1.0840889e-002 -5.4355271e-002
 -1.4464367e-002 -7.0698390e-002
 -1.6470065e-002 -8.3196486e-002
 -1.5441141e-002 -8.1691517e-002
 -1.2449168e-002 -6.7213166e-002
 -1.0069011e-002 -5.1469978e-002
 -1.0125057e-002 -4.7532329e-002
 -1.2074038e-002 -5.8988170e-002
 -1.3450886e-002 -7.6402242e-002
 -1.2090667e-002 -8.4256720e-002
 -8.3002119e-003 -7.3151521e-002
 -4.9732004e-003 -4.7483966e-002
 -5.2639611e-003 -2.2235806e-002
 -9.5914407e-003 -1.1120909e-002
 -1.4648223e-002 -1.5633071e-002
 -1.5509321e-002 -2.4054033e-002
 -9.4674445e-003 -2.1603855e-002
  1.5724199e-003 -3.5773077e-003
  1.2237200e-002  1.9574185e-002
  1.7767664e-002  3.0005954e-002
  1.7839376e-002  1.7252348e-002
  1.6790730e-002 -1.2107411e-002
  1.9608018e-002 -3.8622895e-002
  2.6794293e-002 -4.5423543e-002
  3.2603334e-002 -3.2685886e-002
  2.8886062e-002 -1.8563761e-002
  1.2101696e-002 -2.4616685e-002
 -1.2099125e-002 -5.6846852e-002
 -3.1108532e-002 -9.8324056e-002
 -3.3834976e-002 -1.2102088e-001
 -1.9497533e-002 -1.0880103e-001
  3.7384140e-004 -7.2961903e-002
  9.4937311e-003 -4.5845143e-002
 -8.5913943e-004 -5.5157093e-002
 -2.4035784e-002 -9.8558402e-002
 -4.1854655e-002 -1.4096474e-001
 -3.8584891e-002 -1.4080167e-001
 -1.5253317e-002 -8.7669986e-002
  7.5601490e-003 -2.0661288e-002
  3.1422414e-003 -6.6636222e-003
 -3.8978246e-002 -8.7039142e-002
 -9.7359236e-002 -2.2863951e-001
 -1.2311022e-001 -3.1945869e-001
 -6.5711077e-002 -2.2347641e-001
  9.3859033e-002  1.3191686e-001
  3.2355687e-001  6.9029150e-001
  5.4872439e-001  1.2700229e+000
  6.8620223e-001  1.6447702e+000
  6.8561475e-001  1.6586884e+000
  5.5404588e-001  1.3094790e+000
  3.5005756e-001  7.4932560e-001
  1.5145258e-001  2.0296316e-001
  1.6452785e-002 -1.4793344e-001
 -3.9504254e-002 -2.4655533e-001
 -4.0547464e-002 -1.6560925e-001
 -2.6588805e-002 -4.1024668e-002
 -2.6474551e-002  1.7115089e-002
 -4.4545843e-002 -1.9687637e-002
 -6.6047776e-002 -1.0375047e-001
 -7.3854982e-002 -1.6315939e-001
 -6.2756119e-002 -1.5795178e-001
 -4.1852994e-002 -1.0246317e-001
 -2.5647758e-002 -4.4794987e-002
 -2.2407173e-002 -2.5454169e-002
 -2.9020440e-002 -4.8481116e-002
 -3.5262690e-002 -8.4260159e-002
 -3.2972509e-002 -9.7412483e-002
 -2.2293004e-002 -7.5204838e-002
 -1.0385765e-002 -3.4783496e-002
 -4.5327002e-003 -6.1141991e-003
 -5.8143459e-003 -6.6208661e-003
 -8.6036411e-003 -2.8320229e-002
 -5.8590740e-003 -4.6413369e-002
  4.4646587e-003 -4.0740380e-002
  1.7331319e-002 -1.1939038e-002
  2.4506736e-002  2.0193097e-002
  2.1243195e-002  3.3710759e-002
  1.0265244e-002  2.2384659e-002
 -9.9117049e-005  1.0067089e-004
 -2.1030386e-003 -1.0941339e-002
  5.8612819e-003  1.9786558e-003
  1.8606500e-002  3.2763566e-002
  2.8595223e-002  6.2477264e-002
  3.1751447e-002  7.5025744e-002
  3.0085207e-002  6.9571247e-002
  2.9325649e-002  5.9985516e-002
  3.3783969e-002  6.2644686e-002
  4.2738832e-002  8.2933081e-002
  5.1258391e-002  1.1143113e-001
  5.4516718e-002  1.3228078e-001
  5.1867224e-002  1.3627008e-001
  4.7284533e-002  1.2783731e-001
  4.5877842e-002  1.2048331e-001
  4.9492466e-002  1.2487016e-001
  5.5000685e-002  1.3958256e-001
  5.6701621e-002  1.5201118e-001
  5.0860615e-002  1.4838868e-001
  3.8674989e-002  1.2455086e-001
  2.5297167e-002  8.8861261e-002
  1.5776401e-002  5.5332680e-002
  1.1257894e-002  3.2924823e-002
  8.5691109e-003  1.9859113e-002
  3.3577713e-003  7.1666538e-003
 -5.9390644e-003 -1.2130691e-002
 -1.6616064e-002 -3.6295871e-002
 -2.3884159e-002 -5.6209499e-002
 -2.4972045e-002 -6.3488890e-002
 -2.1607020e-002 -5.8175365e-002
 -1.8703636e-002 -4.9307099e-002
 -2.0248895e-002 -4.7718430e-002
 -2.5765314e-002 -5.7051871e-002
 -3.0379550e-002 -7.0575833e-002
 -2.8656908e-002 -7.6632301e-002
 -1.9229804e-002 -6.8355630e-002
 -6.5138835e-003 -4.9676436e-002
  1.9681639e-003 -3.2650689e-002
  9.2199992e-004 -2.8125716e-002
 -8.7843518e-003 -3.7337921e-002
 -2.0592169e-002 -5.1179188e-002
 -2.6830285e-002 -5.7631650e-002
 -2.3968704e-002 -5.1305472e-002
 -1.4741125e-002 -3.7336029e-002
 -5.7037958e-003 -2.6602694e-002
 -2.3167694e-003 -2.6417969e-002
 -5.2002760e-003 -3.4480121e-002
 -1.0236923e-002 -4.0992272e-002
 -1.2211864e-002 -3.7259284e-002
 -8.8949412e-003 -2.3425694e-002
 -2.5223544e-003 -8.9142337e-003
  2.2086471e-003 -5.0111961e-003
  1.8595389e-003 -1.5578532e-002
 -3.3909177e-003 -3.3618668e-002
 -1.0209595e-002 -4.6425116e-002
 -1.4884495e-002 -4.5342670e-002
 -1.5926546e-002 -3.2342147e-002
 -1.4574927e-002 -1.8150446e-002
 -1.3137401e-002 -1.3575487e-002
 -1.2797996e-002 -2.1050748e-002
 -1.2836228e-002 -3.3072427e-002
 -1.1762105e-002 -3.8643623e-002
 -9.1311182e-003 -3.2332104e-002
 -6.2822474e-003 -1.8556377e-002
 -5.3418040e-003 -7.8108135e-003
 -7.4041819e-003 -8.0999914e-003
 -1.1555386e-002 -1.8658861e-002
 -1.5634048e-002 -3.0984196e-002
 -1.8100504e-002 -3.6077134e-002
 -1.9348924e-002 -3.1766083e-002
 -2.1193433e-002 -2.4100390e-002
 -2.4899670e-002 -2.1807912e-002
 -2.9561821e-002 -2.8667955e-002
 -3.2403416e-002 -4.0255711e-002
 -3.1008063e-002 -4.7777354e-002
 -2.5675132e-002 -4.5656834e-002
 -1.9862197e-002 -3.6385033e-002
 -1.8022113e-002 -2.8461253e-002
 -2.2221651e-002 -2.9085766e-002
 -3.0220925e-002 -3.7840152e-002
 -3.6665013e-002 -4.6719441e-002
 -3.6795310e-002 -4.6737707e-002
 -2.9964193e-002 -3.5579793e-002
 -2.0335930e-002 -1.9960655e-002
 -1.4110465e-002 -1.0452830e-002
 -1.5380236e-002 -1.3015578e-002
 -2.3408152e-002 -2.4130087e-002
 -3.3306968e-002 -3.3742345e-002
 -3.9519487e-002 -3.3534778e-002
 -3.9374923e-002 -2.3736800e-002
 -3.4469921e-002 -1.2862066e-002
 -2.8947940e-002 -1.0446635e-002
 -2.6346965e-002 -1.8854110e-002
 -2.7518215e-002 -3.1211562e-002
 -3.0790807e-002 -3.7177601e-002
 -3.3826230e-002 -3.1846973e-002
 -3.5410211e-002 -2.0197869e-002
 -3.5858300e-002 -1.3186699e-002
 -3.5989313e-002 -1.8507446e-002
 -3.5983260e-002 -3.3700118e-002
 -3.5246034e-002 -4.7568308e-002
 -3.3430278e-002 -4.9141261e-002
 -3.1351057e-002 -3.6899737e-002
 -3.0760378e-002 -2.0566908e-002
 -3.2976958e-002 -1.3647582e-002
 -3.7552053e-002 -2.2524714e-002
 -4.2250574e-002 -4.1009880e-002
 -4.4562355e-002 -5.5004113e-002
 -4.3543167e-002 -5.3749416e-002
 -4.0462496e-002 -3.8593995e-002
 -3.7581682e-002 -2.2020122e-002
 -3.6110605e-002 -1.7557229e-002
 -3.5248063e-002 -2.8683521e-002
 -3.3235930e-002 -4.5896607e-002
 -2.9559733e-002 -5.4472354e-002
 -2.6198298e-002 -4.6691089e-002
 -2.6491096e-002 -2.8436928e-002
 -3.2235233e-002 -1.4580244e-002
 -4.1359768e-002 -1.6674222e-002
 -4.8468842e-002 -3.3075042e-002
 -4.8453143e-002 -4.9751944e-002
 -4.0570411e-002 -5.1413288e-002
 -2.9632136e-002 -3.3917638e-002
 -2.2911144e-002 -7.6694310e-003
 -2.4799479e-002  1.0963750e-002
 -3.3314460e-002  1.3190302e-002
 -4.1285959e-002  4.9991616e-003
 -4.1683441e-002  1.6928735e-003
 -3.2994790e-002  1.4164863e-002
 -2.0354346e-002  3.8508539e-002
 -1.1265883e-002  5.8287483e-002
 -9.3126858e-003  5.8123872e-002
 -1.1142299e-002  3.7417536e-002
 -9.6081559e-003  1.2068374e-002
 -7.6521603e-004  1.7271479e-003
  1.1133519e-002  1.2576704e-002
  1.5434699e-002  3.0460415e-002
  3.2171640e-003  3.1514337e-002
 -2.4277045e-002  2.7845529e-003
 -5.4093763e-002 -4.4154184e-002
 -6.9468797e-002 -7.9514296e-002
 -6.2105126e-002 -7.8517264e-002
 -3.9429775e-002 -4.3547151e-002
 -2.0327909e-002 -5.7496155e-003
 -2.1423597e-002 -1.8797445e-003
 -4.3775114e-002 -4.2891311e-002
 -7.0782286e-002 -1.0027364e-001
 -8.0414455e-002 -1.2493906e-001
 -6.3598994e-002 -8.7919745e-002
 -3.4585914e-002 -1.1743921e-002
 -2.3139405e-002  3.6838028e-002
 -5.1555222e-002 -4.6039068e-003
 -1.1176844e-001 -1.3467301e-001
 -1.6051505e-001 -2.6315716e-001
 -1.3978602e-001 -2.4808944e-001
 -1.2758249e-002  1.8710731e-002
  2.0686260e-001  5.2869783e-001
  4.5243950e-001  1.1332018e+000
  6.3341054e-001  1.6032502e+000
  6.8040213e-001  1.7440997e+000
  5.8034818e-001  1.4986615e+000
  3.8119491e-001  9.7791774e-001
  1.6430100e-001  3.9993232e-001
  1.9126739e-003 -2.5381392e-002
 -7.5184408e-002 -1.9722570e-001
 -8.2988142e-002 -1.5447083e-001
 -6.3471133e-002 -2.5964642e-002
 -5.4062886e-002  6.0046295e-002
 -6.7395083e-002  4.7883987e-002
 -9.1506853e-002 -3.2171553e-002
 -1.0596775e-001 -1.0680854e-001
 -9.9828127e-002 -1.2089937e-001
 -7.8765645e-002 -7.3412813e-002
 -5.8427375e-002 -8.2882995e-003
 -5.1393969e-002  2.5331927e-002
 -5.8364377e-002  1.0128921e-002
 -6.9658823e-002 -3.1581211e-002
 -7.4268316e-002 -6.0633795e-002
 -6.8484010e-002 -5.3250913e-002
 -5.7467964e-002 -1.7220094e-002
 -4.9491883e-002  1.8253725e-002
 -4.8453479e-002  2.8101658e-002
 -5.0947319e-002  1.0879832e-002
 -4.9929499e-002 -1.2381559e-002
 -4.1412950e-002 -1.7103057e-002
 -2.8392625e-002  4.5485925e-003
 -1.8615175e-002  3.8286974e-002
 -1.8204525e-002  6.0412903e-002
 -2.6440155e-002  5.7413000e-002
 -3.6051477e-002  3.6492372e-002
 -3.8734028e-002  1.9141355e-002
 -3.1444960e-002  2.3735500e-002
 -1.8528310e-002  5.1348654e-002
 -8.0857088e-003  8.5721321e-002
 -5.5180695e-003  1.0670987e-001
 -9.3858352e-003  1.0597654e-001
 -1.2752460e-002  9.2649043e-002
 -8.8357783e-003  8.5154598e-002
  3.5621624e-003  9.6308033e-002
  1.9072514e-002  1.2370374e-001
  2.9747016e-002  1.5246981e-001
  3.0826887e-002  1.6748781e-001
  2.3909254e-002  1.6493662e-001
  1.5240577e-002  1.5414255e-001
  1.0794425e-002  1.4894228e-001
  1.2022483e-002  1.5600928e-001
  1.5415742e-002  1.6950557e-001
  1.5828794e-002  1.7597446e-001
  1.0565614e-002  1.6504207e-001
  1.0069885e-003  1.3720171e-001
 -9.2128503e-003  1.0280431e-001
 -1.7577585e-002  7.3641822e-002
 -2.4609241e-002  5.4312323e-002
 -3.2762894e-002  4.0220746e-002
 -4.3383778e-002  2.3297319e-002
 -5.4525622e-002  1.6150090e-004
 -6.1768221e-002 -2.4286450e-002
 -6.1546067e-002 -4.0773497e-002
 -5.4283759e-002 -4.3613629e-002
 -4.4696016e-002 -3.5931180e-002
 -3.8778397e-002 -2.7707217e-002
 -3.9632445e-002 -2.8074104e-002
 -4.5392739e-002 -3.8192446e-002
 -5.0725782e-002 -5.0414123e-002
 -5.0925985e-002 -5.4454541e-002
 -4.5445263e-002 -4.5715630e-002
 -3.8118185e-002 -2.9039594e-002
 -3.4057730e-002 -1.5094715e-002
 -3.5721585e-002 -1.2254010e-002
 -4.1103098e-002 -2.0467501e-002
 -4.5338886e-002 -3.1764712e-002
 -4.4388250e-002 -3.6819826e-002
 -3.8066497e-002 -3.2122138e-002
 -2.9996982e-002 -2.2235709e-002
 -2.4824450e-002 -1.5622419e-002
 -2.4828650e-002 -1.7614060e-002
 -2.8573276e-002 -2.6307795e-002
 -3.2372571e-002 -3.4435261e-002
 -3.3226768e-002 -3.5496901e-002
 -3.0894902e-002 -2.8987589e-002
 -2.7650970e-002 -2.0562822e-002
 -2.6147773e-002 -1.7159682e-002
 -2.7295253e-002 -2.1274030e-002
 -2.9760817e-002 -2.9045873e-002
 -3.1349238e-002 -3.3630408e-002
 -3.0947119e-002 -3.0971999e-002
 -2.9301415e-002 -2.3130118e-002
 -2.8114885e-002 -1.6481676e-002
 -2.8358186e-002 -1.6353337e-002
 -2.9404006e-002 -2.2643521e-002
 -2.9711474e-002 -3.0015800e-002
 -2.8453200e-002 -3.2524366e-002
 -2.6585191e-002 -2.8735143e-002
 -2.6325119e-002 -2.3056371e-002
 -2.9338100e-002 -2.2060700e-002
 -3.5058763e-002 -2.8805143e-002
 -4.0693484e-002 -3.9883042e-002
 -4.3029251e-002 -4.7773749e-002
 -4.0695241e-002 -4.6776024e-002
 -3.5127979e-002 -3.7738169e-002
 -2.9501295e-002 -2.7733975e-002
 -2.6486129e-002 -2.4775696e-002
 -2.6517479e-002 -3.1654013e-002
 -2.7897679e-002 -4.3795026e-002
 -2.8522892e-002 -5.2824847e-002
 -2.7766474e-002 -5.3081939e-002
 -2.6905220e-002 -4.5929670e-002
 -2.7797198e-002 -3.8442447e-002
 -3.0984151e-002 -3.7625068e-002
 -3.4971147e-002 -4.4761482e-002
 -3.7288582e-002 -5.4383188e-002
 -3.6499400e-002 -5.8721294e-002
 -3.3448843e-002 -5.3943251e-002
 -3.0652382e-002 -4.3281970e-002
 -3.0121322e-002 -3.4421247e-002
 -3.1628023e-002 -3.3518075e-002
 -3.2786662e-002 -4.0457812e-002
 -3.1143984e-002 -4.9263710e-002
 -2.6566374e-002 -5.3209750e-002
 -2.1856866e-002 -5.0310297e-002
 -2.0813772e-002 -4.4699307e-002
 -2.5187834e-002 -4.2873749e-002
 -3.2908444e-002 -4.8013443e-002
 -3.9159606e-002 -5.7171745e-002
 -3.9778440e-002 -6.3723644e-002
 -3.4423706e-002 -6.3003273e-002
 -2.6980884e-002 -5.6351023e-002
 -2.2717161e-002 -5.0085124e-002
 -2.4284256e-002 -5.0133238e-002
 -2.9685586e-002 -5.6855831e-002
 -3.3832708e-002 -6.4550294e-002
 -3.2628412e-002 -6.6276377e-002
 -2.6385882e-002 -6.0054249e-002
 -1.9894602e-002 -5.1154738e-002
 -1.8806399e-002 -4.8142296e-002
 -2.5094725e-002 -5.5666400e-002
 -3.5122858e-002 -6.9911045e-002
 -4.2004438e-002 -8.0807974e-002
 -4.0598404e-002 -7.9761268e-002
 -3.1383982e-002 -6.6822928e-002
 -2.0226199e-002 -5.1334964e-002
 -1.4192382e-002 -4.5109243e-002
 -1.6459655e-002 -5.3211928e-002
 -2.4153683e-002 -6.9704796e-002
 -3.0781805e-002 -8.2073509e-002
 -3.1276062e-002 -8.1066933e-002
 -2.5762326e-002 -6.8263269e-002
 -1.9133251e-002 -5.5023757e-002
 -1.6924341e-002 -5.3404335e-002
 -2.0879400e-002 -6.6134509e-002
 -2.7635228e-002 -8.3831149e-002
 -3.1597286e-002 -9.2078618e-002
 -2.9597320e-002 -8.2984653e-002
 -2.3507940e-002 -6.1869609e-002
 -1.8644977e-002 -4.3398914e-002
 -1.9255881e-002 -3.9850712e-002
 -2.4833340e-002 -5.0850848e-002
 -3.0280917e-002 -6.3171661e-002
 -2.9892732e-002 -6.1287498e-002
 -2.1858341e-002 -4.0471308e-002
 -9.6633598e-003 -1.1742689e-002
  8.1934337e-004  5.9546446e-003
  6.0286415e-003  5.0354705e-004
  7.2249636e-003 -2.3538611e-002
  8.5852274e-003 -4.8370923e-002
  1.2488627e-002 -5.7509134e-002
  1.6310034e-002 -4.9761946e-002
  1.4012946e-002 -4.0688696e-002
  1.6882541e-003 -4.9458731e-002
 -1.7569947e-002 -8.1366944e-002
 -3.4110657e-002 -1.2084325e-001
 -3.8284935e-002 -1.4228023e-001
 -2.8479517e-002 -1.3122210e-001
 -1.3862004e-002 -9.8663680e-002
 -8.4891754e-003 -7.4991591e-002
 -2.0180246e-002 -8.5884475e-002
 -4.2780745e-002 -1.2858166e-001
 -5.8973633e-002 -1.6936007e-001
 -5.3382354e-002 -1.6838141e-001
 -2.6904115e-002 -1.1548982e-001
 -5.5566186e-004 -4.8067095e-002
 -3.0781700e-003 -3.1117216e-002
 -4.8269300e-002 -1.0679999e-001
 -1.1732884e-001 -2.4690239e-001
 -1.6077121e-001 -3.4656899e-001
 -1.2288499e-001 -2.7422940e-001
  2.3638143e-002  4.5818623e-002
  2.5416729e-001  5.6878326e-001
  4.9620852e-001  1.1286350e+000
  6.6152219e-001  1.5102724e+000
  6.8930377e-001  1.5576320e+000
  5.7595380e-001  1.2555509e+000
  3.7448772e-001  7.3678781e-001
  1.6482825e-001  2.1020422e-001
  1.3221930e-002 -1.4671779e-001
 -5.5814846e-002 -2.6830684e-001
 -6.1128065e-002 -2.1137337e-001
 -4.3174414e-002 -9.8329639e-002
 -3.5507895e-002 -3.5093678e-002
 -4.7506846e-002 -5.5918955e-002
 -6.6640701e-002 -1.2356292e-001
 -7.4576553e-002 -1.7414621e-001
 -6.3420807e-002 -1.6918088e-001
 -4.0724159e-002 -1.1875157e-001
 -2.1801610e-002 -6.5309824e-002
 -1.7183447e-002 -4.6566333e-002
 -2.5297407e-002 -6.7738678e-002
 -3.5387739e-002 -1.0242175e-001
 -3.7099071e-002 -1.1738649e-001
 -2.8601223e-002 -9.9451574e-002
 -1.7003401e-002 -6.3592410e-002
 -1.1441437e-002 -3.8042948e-002
 -1.5058917e-002 -4.0332081e-002
 -2.2468165e-002 -6.3928731e-002
 -2.4463129e-002 -8.5140190e-002
 -1.5827713e-002 -8.3253506e-002
  1.6178123e-004 -5.7069682e-002
  1.4132627e-002 -2.4888902e-002
  1.7920929e-002 -8.9096220e-003
  1.0901694e-002 -1.7287917e-002
  4.2865170e-004 -3.8155186e-002
 -3.9272381e-003 -4.9785240e-002
  2.3381879e-003 -3.8121317e-002
  1.5494075e-002 -7.4748776e-003
  2.6829645e-002  2.3709500e-002
  2.9585218e-002  3.7970245e-002
  2.4190519e-002  3.2456167e-002
  1.7778855e-002  2.0468847e-002
  1.8485440e-002  2.0112351e-002
  2.9100493e-002  3.9753930e-002
  4.5001248e-002  7.1692302e-002
  5.7677561e-002  9.8871117e-002
  6.1104932e-002  1.0856679e-001
  5.5937149e-002  1.0202835e-001
  4.8474394e-002  9.2522621e-002
  4.5493170e-002  9.3875454e-002
  4.8915229e-002  1.0890900e-001
  5.4445790e-002  1.2697956e-001
  5.5007831e-002  1.3225511e-001
  4.6260724e-002  1.1589171e-001
  2.9850619e-002  8.2445946e-002
  1.2206385e-002  4.5963944e-002
 -9.7590660e-005  1.9274338e-002
 -4.7442619e-003  5.2714566e-003
 -4.7560427e-003 -3.2757573e-003
 -5.7274579e-003 -1.6006745e-002
 -1.1508703e-002 -3.6175827e-002
 -2.1582206e-002 -5.8024139e-002
 -3.1826455e-002 -7.2103027e-002
 -3.7790339e-002 -7.3663492e-002
 -3.7775455e-002 -6.6930193e-002
 -3.3591098e-002 -6.1692643e-002
 -2.8743132e-002 -6.5194371e-002
 -2.5839020e-002 -7.6228392e-002
 -2.5121781e-002 -8.6294212e-002
 -2.4991420e-002 -8.6838081e-002
 -2.3770600e-002 -7.6519710e-002
 -2.1198522e-002 -6.2514466e-002
 -1.8481266e-002 -5.4766119e-002
 -1.7133338e-002 -5.7925082e-002
 -1.7749024e-002 -6.7637405e-002
 -1.9634249e-002 -7.4161901e-002
 -2.1382068e-002 -7.0328792e-002
 -2.1740701e-002 -5.7341869e-002
 -2.0182889e-002 -4.3796097e-002
 -1.6910858e-002 -3.8760085e-002
 -1.2603507e-002 -4.4614853e-002
 -8.2499426e-003 -5.5437157e-002
 -5.0774485e-003 -6.2026398e-002
 -4.2627329e-003 -5.9346136e-002
 -6.2602312e-003 -5.0317173e-002
 -1.0163101e-002 -4.2938989e-002
 -1.3814465e-002 -4.3404458e-002
 -1.4959369e-002 -5.0950701e-002
 -1.2847418e-002 -5.8719966e-002
 -9.0007357e-003 -5.9735939e-002
 -6.3955245e-003 -5.2915882e-002
 -7.3456924e-003 -4.4000283e-002
 -1.1627644e-002 -4.0693595e-002
 -1.6407544e-002 -4.6122310e-002
 -1.8251269e-002 -5.6157737e-002
 -1.5935152e-002 -6.2927121e-002
 -1.1759110e-002 -6.1585043e-002
 -1.0052405e-002 -5.4553653e-002
 -1.3863719e-002 -4.9601403e-002
 -2.2283064e-002 -5.3229179e-002
 -3.0605153e-002 -6.4848845e-002
 -3.3534166e-002 -7.6733152e-002
 -2.9182672e-002 -7.9987662e-002
 -2.0810280e-002 -7.1779440e-002
 -1.4677862e-002 -5.7840083e-002
 -1.5452272e-002 -4.8078673e-002
 -2.2599580e-002 -4.8792577e-002
 -3.0609498e-002 -5.7830102e-002
 -3.3065517e-002 -6.6687297e-002
 -2.7571828e-002 -6.7856066e-002
 -1.7798864e-002 -6.1232255e-002
 -1.0919557e-002 -5.4209098e-002
 -1.2278689e-002 -5.5255397e-002
 -2.1270266e-002 -6.6184549e-002
 -3.1689854e-002 -7.9835923e-002
 -3.6317049e-002 -8.5433726e-002
 -3.2285699e-002 -7.7434520e-002
 -2.3056291e-002 -6.0617632e-002
 -1.5663957e-002 -4.6932188e-002
 -1.5349967e-002 -4.6314748e-002
 -2.1771945e-002 -5.8711308e-002
 -2.9681172e-002 -7.3970449e-002
 -3.3433050e-002 -7.9942414e-002
 -3.1470210e-002 -7.2310078e-002
 -2.7248211e-002 -5.8222119e-002
 -2.5774225e-002 -5.0469347e-002
 -2.8898004e-002 -5.6866657e-002
 -3.3353512e-002 -7.3456827e-002
 -3.3434155e-002 -8.7324388e-002
 -2.6173573e-002 -8.7038764e-002
 -1.4674321e-002 -7.2306182e-002
 -6.5244422e-003 -5.4791396e-002
 -8.0724776e-003 -4.8993606e-002
 -1.9058840e-002 -6.0333471e-002
 -3.2049339e-002 -8.0138184e-002
 -3.7707582e-002 -9.2089190e-002
 -3.1969782e-002 -8.5311427e-002
 -1.9525155e-002 -6.3648264e-002
 -1.0623222e-002 -4.3392220e-002
 -1.3291998e-002 -4.0738427e-002
 -2.6930874e-002 -5.8752461e-002
 -4.2325366e-002 -8.4342398e-002
 -4.8400457e-002 -9.8039856e-002
 -4.0709038e-002 -8.9099091e-002
 -2.4986553e-002 -6.3858427e-002
 -1.2903965e-002 -4.0491187e-002
 -1.3071745e-002 -3.4080338e-002
 -2.4337777e-002 -4.4116868e-002
 -3.6519578e-002 -5.4688622e-002
 -3.8174056e-002 -4.7688304e-002
 -2.5434859e-002 -1.8563539e-002
 -5.0321254e-003  1.8365895e-002
  1.0883980e-002  3.9913756e-002
  1.4021528e-002  3.1816993e-002
  5.8892237e-003  8.0641905e-005
 -4.2614244e-003 -3.3655151e-002
 -7.6541388e-003 -4.9343569e-002
 -3.5514771e-003 -4.4569020e-002
  2.7518208e-004 -3.5917912e-002
 -5.3186515e-003 -4.4088932e-002
 -2.1961810e-002 -7.4763794e-002
 -4.0956658e-002 -1.1171279e-001
 -4.9550361e-002 -1.2912703e-001
 -4.1693069e-002 -1.1414431e-001
 -2.4323196e-002 -8.0684995e-002
 -1.3076030e-002 -6.1170824e-002
 -1.9895530e-002 -8.0380051e-002
 -4.2139489e-002 -1.3179233e-001
 -6.2758551e-002 -1.7763786e-001
 -6.3157436e-002 -1.7683240e-001
 -3.9705905e-002 -1.2174658e-001
 -1.0462019e-002 -5.3788022e-002
 -4.4827344e-003 -3.9741727e-002
 -3.8896296e-002 -1.1930286e-001
 -9.9772183e-002 -2.5949672e-001
 -1.4250426e-001 -3.5321124e-001
 -1.1521495e-001 -2.7275265e-001
  7.4452338e-003  4.8647087e-002
  2.0186319e-001  5.5829480e-001
  4.0073912e-001  1.0902406e+000
  5.2547084e-001  1.4399234e+000
  5.2728569e-001  1.4673622e+000
  4.1252749e-001  1.1692954e+000
  2.3706365e-001  6.7811815e-001
  7.4084721e-002  1.8951833e-001
 -2.4459442e-002 -1.3714720e-001
 -4.9928778e-002 -2.4814802e-001
 -3.1617857e-002 -1.9918804e-001
 -1.0899118e-002 -1.0057047e-001
 -1.3659856e-002 -4.4238140e-002
 -3.8365749e-002 -5.8262744e-002
 -6.4505869e-002 -1.1034504e-001
 -7.2138500e-002 -1.4784752e-001
 -5.7225119e-002 -1.4092835e-001
 -3.2711792e-002 -9.9599429e-002
 -1.6810360e-002 -5.8446676e-002
 -1.8742953e-002 -4.6121796e-002
 -3.2810027e-002 -6.4434509e-002
 -4.4258358e-002 -9.0915753e-002
 -4.1311596e-002 -9.9424597e-002
 -2.3834361e-002 -8.0777277e-002
 -2.5158720e-003 -4.7819797e-002
  9.8224838e-003 -2.3055683e-002
  7.5634866e-003 -2.0364328e-002
 -4.5288569e-003 -3.5394338e-002
 -1.5916228e-002 -5.0972280e-002
 -1.8383316e-002 -5.1720190e-002
 -1.1358194e-002 -3.5696321e-002
 -7.9826099e-004 -1.4322687e-002
  6.4365670e-003 -1.9005659e-003
  7.9677118e-003 -3.8643700e-003
  6.8744618e-003 -1.3064309e-002
  8.1539721e-003 -1.6288390e-002
  1.4153116e-002 -5.0790679e-003
  2.2812746e-002  1.7932438e-002
  2.9794672e-002  4.1626239e-002
  3.2516052e-002  5.5463010e-002
  3.2347858e-002  5.7177427e-002
  3.3370959e-002  5.3606999e-002
  3.8717460e-002  5.4468046e-002
  4.7768658e-002  6.4545740e-002
  5.6525306e-002  8.0516619e-002
  6.0847692e-002  9.4480767e-002
  5.9818063e-002  1.0082399e-001
  5.6534565e-002  1.0064338e-001
  5.5620344e-002  1.0030298e-001
  5.9443686e-002  1.0556730e-001
  6.5936583e-002  1.1615794e-001
  6.9711580e-002  1.2512600e-001
  6.5703515e-002  1.2352678e-001
  5.2518421e-002  1.0671886e-001
  3.3216244e-002  7.7623488e-002
  1.3200245e-002  4.4736788e-002
 -2.9674660e-003  1.6629886e-002
 -1.3654960e-002 -2.9611400e-003
 -1.9932832e-002 -1.6128731e-002
 -2.3721589e-002 -2.7731139e-002
 -2.6104279e-002 -4.1034514e-002
 -2.7061071e-002 -5.5356849e-002
 -2.6543273e-002 -6.7210411e-002
 -2.5477618e-002 -7.3545603e-002
 -2.5591784e-002 -7.4332859e-002
 -2.8133794e-002 -7.2570941e-002
 -3.2541926e-002 -7.1817593e-002
 -3.6437085e-002 -7.3446269e-002
 -3.7165742e-002 -7.5728544e-002
 -3.3835297e-002 -7.5424290e-002
 -2.8256093e-002 -7.0613063e-002
 -2.3850138e-002 -6.2545850e-002
 -2.3187818e-002 -5.5103961e-002
 -2.5961848e-002 -5.2232877e-002
 -2.8954232e-002 -5.5170606e-002
 -2.8169862e-002 -6.1457873e-002
 -2.1793725e-002 -6.6501936e-002
 -1.1821777e-002 -6.6631493e-002
 -3.2246946e-003 -6.1590393e-002
 -9.3893176e-004 -5.4712956e-002
 -6.6569406e-003 -5.0655271e-002
 -1.7517652e-002 -5.2162216e-002
 -2.7690262e-002 -5.8106489e-002
 -3.1812059e-002 -6.4150839e-002
 -2.8149137e-002 -6.5674851e-002
 -1.9473467e-002 -6.0958724e-002
 -1.1182378e-002 -5.2438415e-002
 -7.8263518e-003 -4.5081513e-002
 -1.0334007e-002 -4.2957123e-002
 -1.5716162e-002 -4.6463365e-002
 -1.9399008e-002 -5.2150038e-002
 -1.8498111e-002 -5.5288545e-002
 -1.3783144e-002 -5.3327368e-002
 -9.0688498e-003 -4.7707571e-002
 -8.4918596e-003 -4.2738237e-002
 -1.3530957e-002 -4.2414695e-002
 -2.1933431e-002 -4.7656696e-002
 -2.9260006e-002 -5.5970509e-002
 -3.1979001e-002 -6.3710438e-002
 -2.9865772e-002 -6.8904363e-002
 -2.5877489e-002 -7.2279606e-002
 -2.3732286e-002 -7.5716976e-002
 -2.4990517e-002 -7.9663600e-002
 -2.7843893e-002 -8.1998631e-002
 -2.8588806e-002 -7.9637695e-002
 -2.4724294e-002 -7.1798445e-002
 -1.7261042e-002 -6.1896679e-002
 -1.0385096e-002 -5.6027647e-002
 -8.5875023e-003 -5.8622406e-002
 -1.3326819e-002 -6.8529466e-002
 -2.1844900e-002 -7.9028644e-002
 -2.9100046e-002 -8.2366204e-002
 -3.1353756e-002 -7.5708491e-002
 -2.8842501e-002 -6.3852756e-002
 -2.5427809e-002 -5.6154506e-002
 -2.5425772e-002 -5.9511923e-002
 -3.0056408e-002 -7.2758581e-002
 -3.6340881e-002 -8.7027369e-002
 -3.9262402e-002 -9.2180191e-002
 -3.5602909e-002 -8.4625967e-002
 -2.6480481e-002 -7.0320522e-002
 -1.6631477e-002 -6.0305782e-002
 -1.1118000e-002 -6.2098436e-002
 -1.1860427e-002 -7.3617599e-002
 -1.6673883e-002 -8.4614598e-002
 -2.1453285e-002 -8.4821069e-002
 -2.3473114e-002 -7.2199810e-002
 -2.3204906e-002 -5.4608050e-002
 -2.3237062e-002 -4.3172229e-002
 -2.5394970e-002 -4.2628852e-002
 -2.8752291e-002 -4.6784880e-002
 -3.0080847e-002 -4.3116978e-002
 -2.6547873e-002 -2.3477519e-002
 -1.8114033e-002  7.7914602e-003
 -7.6481648e-003  3.5397465e-002
  1.3785826e-003  4.3750113e-002
  7.5227698e-003  2.8649977e-002
  1.1858379e-002  5.5805241e-004
  1.5811080e-002 -2.3681577e-002
  1.8431822e-002 -3.4249500e-002
  1.6094630e-002 -3.5896456e-002
  5.4573112e-003 -4.3002441e-002
 -1.2398797e-002 -6.5792243e-002
 -3.0665830e-002 -9.9361283e-002
 -4.0374588e-002 -1.2562716e-001
 -3.7043685e-002 -1.2795796e-001
 -2.5169456e-002 -1.0684558e-001
 -1.6125337e-002 -8.2543641e-002
 -1.9765336e-002 -8.0122013e-002
 -3.5738931e-002 -1.0747135e-001
 -5.1898834e-002 -1.4480875e-001
 -5.2700048e-002 -1.5747298e-001
 -3.2566405e-002 -1.2549580e-001
 -4.0066426e-003 -6.7362727e-002
  7.7369233e-003 -3.5270319e-002
 -1.7356113e-002 -7.8010787e-002
 -7.4732203e-002 -1.9362203e-001
 -1.2914084e-001 -3.0732607e-001
 -1.2956019e-001 -2.9891706e-001
 -3.8994097e-002 -7.1790677e-002
  1.3838768e-001  3.7566918e-001
  3.5102567e-001  9.2398564e-001
  5.2121456e-001  1.3758259e+000
  5.8342383e-001  1.5503659e+000
  5.1774725e-001  1.3765236e+000
  3.5886756e-001  9.3046719e-001
  1.7563332e-001  3.9492095e-001
  3.4081568e-002 -3.5585602e-002
 -3.3914991e-002 -2.4807671e-001
 -3.9170890e-002 -2.5119797e-001
 -1.8968451e-002 -1.4531095e-001
 -9.2080308e-003 -4.8633642e-002
 -2.3532095e-002 -2.8586155e-002
 -5.1043259e-002 -7.7678205e-002
 -7.0515632e-002 -1.4012260e-001
 -6.8610595e-002 -1.6267252e-001
 -4.8915143e-002 -1.3209600e-001
 -2.7070267e-002 -7.6980603e-002
 -1.7734811e-002 -3.9326025e-002
 -2.4049654e-002 -4.1317069e-002
 -3.6963912e-002 -7.1959352e-002
 -4.3629167e-002 -1.0029306e-001
 -3.7446012e-002 -1.0153370e-001
 -2.2086301e-002 -7.4947502e-002
 -7.2941053e-003 -4.1169556e-002
 -7.8704718e-004 -2.3707818e-002
 -2.9048949e-003 -3.0565957e-002
 -7.7043991e-003 -5.0044518e-002
 -8.7512760e-003 -6.2227121e-002
 -4.3686968e-003 -5.5454185e-002
  1.7797046e-003 -3.4417951e-002
  4.7442415e-003 -1.4369061e-002
  3.0775685e-003 -7.4911703e-003
  1.7455206e-004 -1.3143566e-002
  1.2030026e-003 -1.9508508e-002
  8.5317738e-003 -1.4391149e-002
  1.9661941e-002  4.3473326e-003
  2.9351630e-002  2.7328319e-002
  3.4032664e-002  4.1934564e-002
  3.4666284e-002  4.3026667e-002
  3.5590597e-002  3.7140238e-002
  4.0380496e-002  3.6841877e-002
  4.8344841e-002  5.0137784e-002
  5.4840197e-002  7.3815538e-002
  5.5257688e-002  9.6087236e-002
  4.9390745e-002  1.0623068e-001
  4.2331159e-002  1.0321220e-001
  4.0851532e-002  9.6209302e-002
  4.7880055e-002  9.6546557e-002
  5.9480084e-002  1.0768176e-001
  6.6916849e-002  1.2138958e-001
  6.2593656e-002  1.2344564e-001
  4.5496764e-002  1.0444590e-001
  2.2053523e-002  6.7406036e-002
  1.7094885e-003  2.6102029e-002
 -9.4545471e-003 -4.5318215e-003
 -1.2313130e-002 -1.8618557e-002
 -1.3015071e-002 -2.2481577e-002
 -1.7595787e-002 -2.8560163e-002
 -2.7117133e-002 -4.5102158e-002
 -3.7004659e-002 -6.9656824e-002
 -4.1013209e-002 -9.1257472e-002
 -3.6382147e-002 -9.9193107e-002
 -2.6330704e-002 -9.1515396e-002
 -1.7823680e-002 -7.6596089e-002
 -1.6511281e-002 -6.6744430e-002
 -2.2777510e-002 -6.9145835e-002
 -3.1785544e-002 -8.0993175e-002
 -3.7285148e-002 -9.2374996e-002
 -3.6127301e-002 -9.4304844e-002
 -3.0123507e-002 -8.5568834e-002
 -2.4033134e-002 -7.3202534e-002
 -2.1573296e-002 -6.6624796e-002
 -2.2743391e-002 -7.0272954e-002
 -2.4369971e-002 -8.0455345e-002
 -2.3166198e-002 -8.8636234e-002
 -1.8621784e-002 -8.8222013e-002
 -1.3365294e-002 -7.9477691e-002
 -1.0831017e-002 -6.8810151e-002
 -1.2317729e-002 -6.3430206e-002
 -1.5853306e-002 -6.5754529e-002
 -1.7823437e-002 -7.2006309e-002
 -1.5988377e-002 -7.5806966e-002
 -1.1303807e-002 -7.3505167e-002
 -7.0505429e-003 -6.6840980e-002
 -6.1113549e-003 -6.0984330e-002
 -8.6342637e-003 -5.9759710e-002
 -1.2012267e-002 -6.2342413e-002
 -1.3129226e-002 -6.4105561e-002
 -1.1026164e-002 -6.0941831e-002
 -7.7454855e-003 -5.3243349e-002
 -6.6328503e-003 -4.6055178e-002
 -9.4798797e-003 -4.5073238e-002
 -1.5025508e-002 -5.1815259e-002
 -2.0006016e-002 -6.2007044e-002
 -2.1915189e-002 -6.8777259e-002
 -2.1108643e-002 -6.8167800e-002
 -2.0425161e-002 -6.2448551e-002
 -2.2574732e-002 -5.8336729e-002
 -2.7442070e-002 -6.1381090e-002
 -3.1683551e-002 -7.1024067e-002
 -3.1227485e-002 -8.0568675e-002
 -2.4805898e-002 -8.2408738e-002
 -1.5626823e-002 -7.4496311e-002
 -9.5725615e-003 -6.2740342e-002
 -1.1022985e-002 -5.6975067e-002
 -1.9466956e-002 -6.3353558e-002
 -2.9565735e-002 -7.9045962e-002
 -3.4838347e-002 -9.3705170e-002
 -3.2280283e-002 -9.6953445e-002
 -2.4506177e-002 -8.6336397e-002
 -1.7661512e-002 -6.9472941e-002
 -1.6639918e-002 -5.8466725e-002
 -2.1352913e-002 -6.0697908e-002
 -2.6925033e-002 -7.3097204e-002
 -2.7717312e-002 -8.4588079e-002
 -2.2002994e-002 -8.4894361e-002
 -1.3642171e-002 -7.2936345e-002
 -9.2851654e-003 -5.8050727e-002
 -1.3164037e-002 -5.2794193e-002
 -2.3530035e-002 -6.2817183e-002
 -3.3593529e-002 -8.1807370e-002
 -3.6497835e-002 -9.5846644e-002
 -3.0442619e-002 -9.4056218e-002
 -2.0107044e-002 -7.7325683e-002
 -1.3158303e-002 -5.8092532e-002
 -1.4473764e-002 -5.1036154e-002
 -2.2536774e-002 -6.1734992e-002
 -3.0737896e-002 -8.2195818e-002
 -3.2634395e-002 -9.6982192e-002
 -2.6995208e-002 -9.5324079e-002
 -1.8667592e-002 -7.9667597e-002
 -1.4511920e-002 -6.3775108e-002
 -1.7717965e-002 -6.1671456e-002
 -2.5109507e-002 -7.6127482e-002
 -2.9701660e-002 -9.5995659e-002
 -2.6568506e-002 -1.0470306e-001
 -1.7262223e-002 -9.3387422e-002
 -9.0215276e-003 -6.8010010e-002
 -9.0725122e-003 -4.4546327e-002
 -1.8368306e-002 -3.5832002e-002
 -2.9998312e-002 -4.0737277e-002
 -3.3891195e-002 -4.4859536e-002
 -2.4498649e-002 -3.2649466e-002
 -5.4924611e-003 -1.5046939e-003
  1.2387955e-002  3.4021654e-002
  1.9108277e-002  5.2044840e-002
  1.2838381e-002  4.0119291e-002
  1.2758563e-003  5.6070991e-003
 -4.6250823e-003 -2.9246445e-002
  3.8702554e-004 -4.4431574e-002
  1.1161713e-002 -3.8012148e-002
  1.5930031e-002 -2.7521607e-002
  5.9529056e-003 -3.5035285e-002
 -1.6539067e-002 -6.7555609e-002
 -3.8818110e-002 -1.0922845e-001
 -4.6882679e-002 -1.3297496e-001
 -3.6664552e-002 -1.2330458e-001
 -1.8121702e-002 -9.1497790e-002
 -8.2130124e-003 -6.9007757e-002
 -1.7348970e-002 -8.2015274e-002
 -3.9979641e-002 -1.2692501e-001
 -5.7636890e-002 -1.6864989e-001
 -5.3557613e-002 -1.6713222e-001
 -2.8268831e-002 -1.1395281e-001
 -3.0780752e-003 -4.8778786e-002
 -6.1681599e-003 -3.6361610e-002
 -4.8935481e-002 -1.1370999e-001
 -1.0933691e-001 -2.4372953e-001
 -1.3668115e-001 -3.1426037e-001
 -7.8817075e-002 -1.9477487e-001
  8.3210843e-002  1.7754650e-001
  3.1530872e-001  7.3670265e-001
  5.4004000e-001  1.2970771e+000
  6.7282200e-001  1.6369914e+000
  6.6457159e-001  1.6125791e+000
  5.2598463e-001  1.2354746e+000
  3.1945055e-001  6.6704241e-001
  1.2437890e-001  1.3219747e-001
 -2.7648636e-003 -1.9577548e-001
 -5.0749612e-002 -2.7222935e-001
 -4.7807329e-002 -1.7942837e-001
 -3.5449021e-002 -5.5886290e-002
 -4.0745775e-002 -7.1286014e-003
 -6.4180862e-002 -5.3618901e-002
 -8.7613102e-002 -1.4127331e-001
 -9.3044106e-002 -1.9678041e-001
 -7.7263777e-002 -1.8380421e-001
 -5.2771975e-002 -1.2235808e-001
 -3.6541038e-002 -6.4423856e-002
 -3.6795984e-002 -5.0298453e-002
 -4.7962217e-002 -8.0149275e-002
 -5.6583825e-002 -1.1952214e-001
 -5.2580337e-002 -1.3031336e-001
 -3.6727366e-002 -1.0081745e-001
 -1.9100906e-002 -5.2237130e-002
 -1.0612670e-002 -1.9192017e-002
 -1.4764563e-002 -2.1729957e-002
 -2.5898494e-002 -5.1133473e-002
 -3.4484271e-002 -7.9087213e-002
 -3.4565363e-002 -8.1055002e-002
 -2.7501083e-002 -5.4635810e-002
 -1.9482806e-002 -1.9122092e-002
 -1.5654343e-002  1.6584796e-003
 -1.5974274e-002 -1.6272173e-003
 -1.6090907e-002 -1.7971850e-002
 -1.1955136e-002 -2.6850319e-002
 -3.8468225e-003 -1.5713259e-002
  3.8259665e-003  1.0460920e-002
  6.6498888e-003  3.4687559e-002
  4.4854886e-003  4.3046927e-002
  2.0598322e-003  3.6410434e-002
  5.0994116e-003  2.9212330e-002
  1.5156481e-002  3.6793811e-002
  2.7601472e-002  6.2190987e-002
  3.4820580e-002  9.3367133e-002
  3.2286715e-002  1.1305068e-001
  2.2663662e-002  1.1288615e-001
  1.4355193e-002  1.0012905e-001
  1.5371798e-002  9.1449695e-002
  2.7021867e-002  9.8854100e-002
  4.2340532e-002  1.1921454e-001
  5.0621706e-002  1.3588310e-001
  4.4804662e-002  1.3114729e-001
  2.6333219e-002  9.9777633e-002
  3.9146203e-003  5.3033090e-002
 -1.2687669e-002  1.0356664e-002
 -1.9094097e-002 -1.4590237e-002
 -1.8396668e-002 -2.2647461e-002
 -1.7708061e-002 -2.6371475e-002
 -2.2205010e-002 -3.8609881e-002
 -3.1390522e-002 -6.2024369e-002
 -4.0081297e-002 -8.7559515e-002
 -4.3007904e-002 -1.0257313e-001
 -3.9063711e-002 -1.0142423e-001
 -3.1921971e-002 -8.9830354e-002
 -2.6824685e-002 -7.9847258e-002
 -2.6486895e-002 -8.0029687e-002
 -2.9431596e-002 -8.9050266e-002
 -3.1907697e-002 -9.7824771e-002
 -3.1434732e-002 -9.7923361e-002
 -2.8858899e-002 -8.8958427e-002
 -2.7278276e-002 -7.8792383e-002
 -2.8895107e-002 -7.6547537e-002
 -3.2750028e-002 -8.4583911e-002
 -3.5406098e-002 -9.6320447e-002
 -3.3991215e-002 -1.0174051e-001
 -2.8955507e-002 -9.5935318e-002
 -2.3931603e-002 -8.3401850e-002
 -2.2692948e-002 -7.4365433e-002
 -2.5703173e-002 -7.6124177e-002
 -2.9301992e-002 -8.6707977e-002
 -2.8498593e-002 -9.6215815e-002
 -2.1295474e-002 -9.4942331e-002
 -1.0953870e-002 -8.1649405e-002
 -4.1213509e-003 -6.5114008e-002
 -5.8285202e-003 -5.7341379e-002
 -1.5428403e-002 -6.3951483e-002
 -2.6625809e-002 -7.9472519e-002
 -3.1808737e-002 -9.1430525e-002
 -2.7558198e-002 -9.0153567e-002
 -1.7097909e-002 -7.6358946e-002
 -7.8102899e-003 -6.0485196e-002
 -5.6941350e-003 -5.4245488e-002
 -1.1040647e-002 -6.1308786e-002
 -1.8625160e-002 -7.4603885e-002
 -2.2159989e-002 -8.2392734e-002
 -1.9352316e-002 -7.8005206e-002
 -1.3541923e-002 -6.5290143e-002
 -1.0709738e-002 -5.5259981e-002
 -1.4349908e-002 -5.6794256e-002
 -2.2433925e-002 -6.9077614e-002
 -2.8918601e-002 -8.2098623e-002
 -2.8680024e-002 -8.4881941e-002
 -2.1831266e-002 -7.4688247e-002
 -1.3919384e-002 -5.9589782e-002
 -1.1664129e-002 -5.2072865e-002
 -1.7668678e-002 -5.8866802e-002
 -2.8260723e-002 -7.5277277e-002
 -3.6187655e-002 -8.8749007e-002
 -3.6094612e-002 -8.8947026e-002
 -2.8570633e-002 -7.6217168e-002
 -1.9608754e-002 -6.1497286e-002
 -1.5952487e-002 -5.7601661e-002
 -1.9998469e-002 -6.8878634e-002
 -2.8185297e-002 -8.7554878e-002
 -3.3979987e-002 -9.9787615e-002
 -3.2940937e-002 -9.6586174e-002
 -2.5876126e-002 -8.0829520e-002
 -1.7755548e-002 -6.4767676e-002
 -1.3615325e-002 -6.0163713e-002
 -1.4761778e-002 -6.9019633e-002
 -1.8306313e-002 -8.2434635e-002
 -2.0115887e-002 -8.8320969e-002
 -1.8517553e-002 -8.1543493e-002
 -1.5559685e-002 -6.8065880e-002
 -1.4955168e-002 -5.9775958e-002
 -1.8581245e-002 -6.4341993e-002
 -2.4711644e-002 -7.8641162e-002
 -2.9447911e-002 -9.1320037e-002
 -3.0046344e-002 -9.2306042e-002
 -2.7166650e-002 -8.1280881e-002
 -2.4045081e-002 -6.7920310e-002
 -2.3275235e-002 -6.3523765e-002
 -2.4167325e-002 -7.1035258e-002
 -2.3292516e-002 -8.2237477e-002
 -1.7878569e-002 -8.4573583e-002
 -9.2336994e-003 -7.2395539e-002
 -2.8991415e-003 -5.2766174e-002
 -4.7503406e-003 -4.0672513e-002
 -1.5977501e-002 -4.6903792e-002
 -3.1065692e-002 -6.8518073e-002
 -4.0928396e-002 -9.0127504e-002
 -3.9310744e-002 -9.5657781e-002
 -2.7642736e-002 -8.1403541e-002
 -1.4336389e-002 -5.9555362e-002
 -8.7275846e-003 -4.8774291e-002
 -1.4114969e-002 -5.8936262e-002
 -2.5266234e-002 -8.2364688e-002
 -3.2486119e-002 -9.9106066e-002
 -2.9167346e-002 -9.2536641e-002
 -1.7067717e-002 -6.3010213e-002
 -5.0998941e-003 -2.8246642e-002
 -2.4435100e-003 -9.6117087e-003
 -1.1335671e-002 -1.5035541e-002
 -2.5119893e-002 -3.2453066e-002
 -3.3187448e-002 -3.9623873e-002
 -2.8842304e-002 -2.2763220e-002
 -1.4025613e-002  1.1077766e-002
  2.6970967e-003  3.8495277e-002
  1.2893360e-002  3.8074562e-002
  1.4291154e-002  8.0671019e-003
  1.1216439e-002 -3.1349882e-002
  9.4455902e-003 -5.3815540e-002
  1.0250058e-002 -4.8222146e-002
  9.1045127e-003 -2.8166403e-002
  4.0508952e-004 -2.0829985e-002
 -1.6053407e-002 -4.3718181e-002
 -3.2879985e-002 -8.8276217e-002
 -4.0074180e-002 -1.2504195e-001
 -3.3533277e-002 -1.2749546e-001
 -1.9879706e-002 -9.5635244e-002
 -1.2413358e-002 -5.8655876e-002
 -2.0285127e-002 -5.2239646e-002
 -3.9403071e-002 -8.7344986e-002
 -5.3614873e-002 -1.3698200e-001
 -4.7162190e-002 -1.5528211e-001
 -1.9836029e-002 -1.1731060e-001
  7.9005633e-003 -4.8002756e-002
  6.7717779e-003 -1.2251184e-002
 -3.8037461e-002 -6.5526475e-002
 -1.0800693e-001 -1.9707185e-001
 -1.5255240e-001 -3.1038716e-001
 -1.1410723e-001 -2.6547132e-001
  3.5829765e-002  3.4652168e-002
  2.7212369e-001  5.6588901e-001
  5.2031059e-001  1.1681642e+000
  6.9009303e-001  1.6122934e+000
  7.1976186e-001  1.7152598e+000
  6.0610424e-001  1.4371982e+000
  4.0288867e-001  9.0202187e-001
  1.9007289e-001  3.2948452e-001
  3.3105178e-002 -7.9777370e-002
 -4.4098673e-002 -2.3811487e-001
 -5.9486193e-002 -1.9254046e-001
 -5.0934935e-002 -7.0539742e-002
 -4.9081866e-002  7.9128557e-003
 -6.2208582e-002 -4.9196498e-003
 -7.9492892e-002 -7.7462044e-002
 -8.6082423e-002 -1.4238392e-001
 -7.6793255e-002 -1.5269424e-001
 -5.9044187e-002 -1.1087908e-001
 -4.5104670e-002 -5.6771664e-002
 -4.1717914e-002 -3.0826303e-002
 -4.5686288e-002 -4.3761860e-002
 -4.8094447e-002 -7.3822878e-002
 -4.2532685e-002 -8.9104644e-002
 -3.0328165e-002 -7.4279998e-002
 -1.8794754e-002 -4.0495455e-002
 -1.4683218e-002 -1.3108614e-002
 -1.8613585e-002 -9.6174652e-003
 -2.4956091e-002 -2.6329860e-002
 -2.6891091e-002 -4.3402016e-002
 -2.2019675e-002 -4.2371742e-002
 -1.3859489e-002 -2.0944812e-002
 -8.3597739e-003  6.4327828e-003
 -8.5729007e-003  2.1561065e-002
 -1.2154568e-002  1.7426411e-002
 -1.3522179e-002  3.0746468e-003
 -8.7939562e-003 -4.7558913e-003
  8.5899218e-004  4.5873337e-003
  1.0201049e-002  2.7911173e-002
  1.4411059e-002  5.2174379e-002
  1.3175589e-002  6.6013039e-002
  1.0934316e-002  6.8760791e-002
  1.3164626e-002  6.9822182e-002
  2.1742424e-002  7.9579138e-002
  3.3240635e-002  1.0004770e-001
  4.1535350e-002  1.2318837e-001
  4.2684945e-002  1.3803673e-001
  3.8110674e-002  1.4026754e-001
  3.3501830e-002  1.3594523e-001
  3.4327177e-002  1.3628756e-001
  4.1502440e-002  1.4785387e-001
  5.0542257e-002  1.6632196e-001
  5.4816426e-002  1.7908160e-001
  5.0209409e-002  1.7450831e-001
  3.7795737e-002  1.5059677e-001
  2.2671037e-002  1.1617105e-001
  1.0152149e-002  8.4024157e-002
  2.3509259e-003  6.1687968e-002
 -2.3740260e-003  4.7128632e-002
 -7.1759551e-003  3.2306674e-002
 -1.3740498e-002  1.1198754e-002
 -2.1120448e-002 -1.4568179e-002
 -2.6919899e-002 -3.6869314e-002
 -2.9541471e-002 -4.7746171e-002
 -2.9417562e-002 -4.5835337e-002
 -2.8357419e-002 -3.7395668e-002
 -2.7766723e-002 -3.1259154e-002
 -2.7488838e-002 -3.2134567e-002
 -2.6312158e-002 -3.7691701e-002
 -2.3560819e-002 -4.1478805e-002
 -2.0178000e-002 -3.8935738e-002
 -1.8228282e-002 -3.1361127e-002
 -1.9170802e-002 -2.4654973e-002
 -2.2476731e-002 -2.4221138e-002
 -2.5878838e-002 -3.0425973e-002
 -2.7085180e-002 -3.8391219e-002
 -2.5556515e-002 -4.2078320e-002
 -2.2762847e-002 -3.9096392e-002
 -2.0688936e-002 -3.2238124e-002
 -1.9927423e-002 -2.6674429e-002
 -1.9074192e-002 -2.5429215e-002
 -1.6139150e-002 -2.7084753e-002
 -1.0735803e-002 -2.7491579e-002
 -5.0977248e-003 -2.3841989e-002
 -2.7816177e-003 -1.7403685e-002
 -5.9428205e-003 -1.2590071e-002
 -1.3309139e-002 -1.3155951e-002
 -2.0703085e-002 -1.8863258e-002
 -2.3870981e-002 -2.5511417e-002
 -2.1550281e-002 -2.8295013e-002
 -1.6298730e-002 -2.5563568e-002
 -1.2425807e-002 -1.9902932e-002
 -1.2587422e-002 -1.5630770e-002
 -1.5713636e-002 -1.5072898e-002
 -1.8001917e-002 -1.6762609e-002
 -1.6152089e-002 -1.7035337e-002
 -1.0239622e-002 -1.3622700e-002
 -3.9011658e-003 -7.9811353e-003
 -1.6673800e-003 -4.2807218e-003
 -5.4568679e-003 -5.8422787e-003
 -1.3101299e-002 -1.2119616e-002
 -2.0015107e-002 -1.8872479e-002
 -2.2721776e-002 -2.1508951e-002
 -2.1397257e-002 -1.8769784e-002
 -1.9463949e-002 -1.3710534e-002
 -2.0620254e-002 -1.1083327e-002
 -2.5692315e-002 -1.3350670e-002
 -3.1809390e-002 -1.8632249e-002
 -3.4574305e-002 -2.2360089e-002
 -3.1496569e-002 -2.1240583e-002
 -2.3969722e-002 -1.6137416e-002
 -1.6292046e-002 -1.1448565e-002
 -1.2625950e-002 -1.1519414e-002
 -1.4267020e-002 -1.7097119e-002
 -1.9147425e-002 -2.4740169e-002
 -2.3747396e-002 -2.9649861e-002
 -2.5715156e-002 -2.9485962e-002
 -2.5184330e-002 -2.6014569e-002
 -2.3991665e-002 -2.3291863e-002
 -2.3831647e-002 -2.4076540e-002
 -2.4927752e-002 -2.7616390e-002
 -2.6310006e-002 -3.0616309e-002
 -2.7053351e-002 -3.0355451e-002
 -2.7119709e-002 -2.7159565e-002
 -2.7053923e-002 -2.4009725e-002
 -2.6978254e-002 -2.3722810e-002
 -2.6036287e-002 -2.6177570e-002
 -2.3163842e-002 -2.8441302e-002
 -1.8454702e-002 -2.7479607e-002
 -1.3868997e-002 -2.3271601e-002
 -1.2205686e-002 -1.9330216e-002
 -1.4890588e-002 -1.9877448e-002
 -2.0411630e-002 -2.6028548e-002
 -2.5007205e-002 -3.4380658e-002
 -2.5365315e-002 -3.9434579e-002
 -2.1310956e-002 -3.8060637e-002
 -1.6187697e-002 -3.2151748e-002
 -1.4396011e-002 -2.7120197e-002
 -1.7769227e-002 -2.7264151e-002
 -2.3747978e-002 -3.1976683e-002
 -2.7085999e-002 -3.6206544e-002
 -2.3983510e-002 -3.4979278e-002
 -1.5415929e-002 -2.8173497e-002
 -6.8660184e-003 -2.1240734e-002
 -4.4601323e-003 -2.0905094e-002
 -1.0278308e-002 -2.9158478e-002
 -2.0639114e-002 -4.0884776e-002
 -2.8716022e-002 -4.7474335e-002
 -2.9573660e-002 -4.3863209e-002
 -2.3736351e-002 -3.3187627e-002
 -1.6454386e-002 -2.4752156e-002
 -1.3301289e-002 -2.6537168e-002
 -1.5752744e-002 -3.8212231e-002
 -2.0276832e-002 -5.0679477e-002
 -2.1691411e-002 -5.3143445e-002
 -1.7889330e-002 -4.2234251e-002
 -1.1848414e-002 -2.5599267e-002
 -9.1825831e-003 -1.6497268e-002
 -1.3196069e-002 -2.3245171e-002
 -2.1651810e-002 -4.1928515e-002
 -2.8242181e-002 -5.8640362e-002
 -2.7765322e-002 -5.9927564e-002
 -2.0695473e-002 -4.3297027e-002
 -1.3138672e-002 -1.9157620e-002
 -1.1815970e-002 -2.3820398e-003
 -1.8119288e-002 -2.8000388e-004
 -2.6208781e-002 -6.9034084e-003
 -2.7226383e-002 -8.7792930e-003
 -1.6482365e-002  2.5775818e-003
  2.0759929e-003  2.1977428e-002
  1.8232949e-002  3.3734963e-002
  2.3096145e-002  2.4756342e-002
  1.6020897e-002 -3.1588349e-003
  5.0293747e-003 -3.2842851e-002
  9.0627862e-005 -4.4787226e-002
  4.5841866e-003 -3.3666645e-002
  1.2094963e-002 -1.4372698e-002
  1.1624124e-002 -1.1149082e-002
 -2.5806746e-003 -3.7349824e-002
 -2.4772464e-002 -8.2340180e-002
 -4.0907555e-002 -1.1765215e-001
 -3.9583674e-002 -1.1930516e-001
 -2.2154383e-002 -8.8906050e-002
 -3.2132754e-003 -5.5077915e-002
  1.6759496e-004 -5.1492053e-002
 -1.7422620e-002 -8.7510350e-002
 -4.3809255e-002 -1.3606274e-001
 -5.7779523e-002 -1.5234199e-001
 -4.6883694e-002 -1.1229775e-001
 -2.0568695e-002 -4.0769647e-002
 -6.3166622e-003 -2.1084682e-003
 -2.8468930e-002 -5.2107546e-002
 -8.3575851e-002 -1.8193087e-001
 -1.3158816e-001 -2.9764655e-001
 -1.1345736e-001 -2.6044803e-001
  1.2392101e-002  2.8411538e-002
  2.3700764e-001  5.4911124e-001
  4.9437706e-001  1.1459007e+000
  6.8916058e-001  1.5912665e+000
  7.4449939e-001  1.7002404e+000
  6.4195729e-001  1.4289294e+000
  4.2976379e-001  8.9791534e-001
  1.9501287e-001  3.2628458e-001
  1.7405152e-002 -8.3694885e-002
 -6.7558255e-002 -2.4255146e-001
 -7.5982846e-002 -1.9718267e-001
 -5.3452410e-002 -7.6601418e-002
 -4.1213120e-002 -1.9707526e-003
 -5.3301034e-002 -1.9852547e-002
 -7.6684906e-002 -9.5198553e-002
 -8.9407037e-002 -1.5736716e-001
 -8.0639003e-002 -1.5935536e-001
 -5.8038440e-002 -1.0799288e-001
 -3.9240101e-002 -4.9448362e-002
 -3.6609040e-002 -2.8038463e-002
 -4.7968588e-002 -5.2650229e-002
 -5.9965517e-002 -9.4697438e-002
 -6.0018316e-002 -1.1504435e-001
 -4.6486127e-002 -9.5882374e-002
 -2.9078687e-002 -5.2648664e-002
 -1.9975124e-002 -1.8780577e-002
 -2.3527932e-002 -1.7785220e-002
 -3.3003077e-002 -4.5450532e-002
 -3.6650110e-002 -7.5209693e-002
 -2.7791368e-002 -8.0661134e-002
 -1.0495538e-002 -5.6339960e-002
  3.6843105e-003 -2.0612304e-002
  5.1024492e-003  3.2429802e-004
 -6.1681921e-003 -6.4509433e-003
 -2.0268523e-002 -3.1191789e-002
 -2.5217515e-002 -5.0400426e-002
 -1.5990971e-002 -4.5817068e-002
  1.9871008e-003 -1.8060341e-002
  1.7530936e-002  1.5393982e-002
  2.2519092e-002  3.5179318e-002
  1.7888499e-002  3.5287692e-002
  1.2221128e-002  2.6553440e-002
  1.4396756e-002  2.6379119e-002
  2.6358815e-002  4.3822779e-002
  4.1812518e-002  7.2428979e-002
  5.1491560e-002  9.6072530e-002
  5.0612982e-002  1.0253958e-001
  4.2470662e-002  9.3388737e-002
  3.5413457e-002  8.2173726e-002
  3.5893394e-002  8.2840446e-002
  4.3158634e-002  9.7888116e-002
  4.9932347e-002  1.1602242e-001
  4.8304510e-002  1.2090513e-001
  3.6082918e-002  1.0384144e-001
  1.8513846e-002  7.0264207e-002
  4.1538748e-003  3.5116321e-002
 -1.6608064e-003  1.1236245e-002
 -6.4304744e-004  1.3161057e-004
  2.9680967e-004 -7.6706633e-003
 -5.1298175e-003 -2.3525776e-002
 -1.7474494e-002 -5.0512107e-002
 -3.1131608e-002 -8.0438528e-002
 -3.8831341e-002 -1.0029614e-001
 -3.7265385e-002 -1.0258453e-001
 -2.9502740e-002 -9.1183038e-002
 -2.2374930e-002 -7.8168224e-002
 -2.1232459e-002 -7.4419135e-002
 -2.6209450e-002 -8.1654984e-002
 -3.2787312e-002 -9.2136497e-002
 -3.5840887e-002 -9.5800721e-002
 -3.3694548e-002 -8.8870199e-002
 -2.8963107e-002 -7.6745753e-002
 -2.5768818e-002 -6.9162501e-002
 -2.5938780e-002 -7.1906142e-002
 -2.7502431e-002 -8.1979119e-002
 -2.6682201e-002 -9.0148464e-002
 -2.1571359e-002 -8.8639125e-002
 -1.4192260e-002 -7.7520724e-002
 -9.1097226e-003 -6.4579265e-002
 -9.7483263e-003 -5.8915854e-002
 -1.5419949e-002 -6.3571703e-002
 -2.1699421e-002 -7.3236798e-002
 -2.3897615e-002 -7.8784531e-002
 -2.0754893e-002 -7.4741870e-002
 -1.5296796e-002 -6.3569908e-002
 -1.2122977e-002 -5.3341962e-002
 -1.3372997e-002 -5.0870816e-002
 -1.6775634e-002 -5.6092907e-002
 -1.7474991e-002 -6.2275238e-002
 -1.2311770e-002 -6.1886977e-002
 -2.9333007e-003 -5.3062632e-002
  4.8814067e-003 -4.1370186e-002
  5.4534912e-003 -3.5286238e-002
 -2.2944278e-003 -3.9183271e-002
 -1.3670629e-002 -4.9598914e-002
 -2.1466039e-002 -5.7914916e-002
 -2.1189603e-002 -5.7253345e-002
 -1.4323042e-002 -4.8014451e-002
 -7.0614296e-003 -3.7458599e-002
 -5.5460668e-003 -3.3774073e-002
 -1.1211106e-002 -3.9446765e-002
 -1.9863194e-002 -4.9418968e-002
 -2.5125924e-002 -5.5496666e-002
 -2.3405952e-002 -5.3294679e-002
 -1.6517485e-002 -4.5941272e-002
 -1.0034454e-002 -4.1396433e-002
 -8.8716886e-003 -4.5652280e-002
 -1.3644286e-002 -5.7384649e-002
 -2.0571134e-002 -6.8671683e-002
 -2.4797448e-002 -7.1292774e-002
 -2.4293104e-002 -6.3511881e-002
 -2.1095069e-002 -5.1736001e-002
 -1.9022567e-002 -4.5529456e-002
 -2.0047961e-002 -4.9948843e-002
 -2.2449829e-002 -6.1393890e-002
 -2.2576904e-002 -7.0554891e-002
 -1.8441775e-002 -7.0004690e-002
 -1.2127175e-002 -6.0362222e-002
 -8.6170245e-003 -4.9961134e-002
 -1.1810298e-002 -4.8071074e-002
 -2.0824467e-002 -5.7127924e-002
 -2.9947854e-002 -7.0409921e-002
 -3.2590557e-002 -7.7247330e-002
 -2.6368391e-002 -7.1706821e-002
 -1.5231554e-002 -5.7730404e-002
 -6.7639071e-003 -4.6290417e-002
 -6.5456583e-003 -4.6695835e-002
 -1.3911838e-002 -5.8889969e-002
 -2.2506203e-002 -7.3160630e-002
 -2.5324676e-002 -7.7737128e-002
 -2.0365239e-002 -6.8378812e-002
 -1.2429026e-002 -5.2259979e-002
 -9.4316725e-003 -4.2682404e-002
 -1.6017872e-002 -4.8598220e-002
 -2.9503051e-002 -6.7155643e-002
 -4.1371557e-002 -8.5343463e-002
 -4.3394324e-002 -8.9748516e-002
 -3.3761386e-002 -7.6931789e-002
 -1.8553351e-002 -5.6230164e-002
 -7.3405513e-003 -4.2690147e-002
 -6.2746286e-003 -4.5521948e-002
 -1.3885978e-002 -6.1107172e-002
 -2.2764901e-002 -7.6087931e-002
 -2.5599809e-002 -7.8040417e-002
 -2.0807397e-002 -6.5292088e-002
 -1.3470842e-002 -4.8162616e-002
 -1.0918687e-002 -4.0604661e-002
 -1.6638670e-002 -4.8994029e-002
 -2.7375140e-002 -6.7064097e-002
 -3.5662020e-002 -8.0995026e-002
 -3.5689233e-002 -8.0526762e-002
 -2.7866448e-002 -6.7150923e-002
 -1.8374782e-002 -5.2693208e-002
 -1.4220780e-002 -4.9489531e-002
 -1.7799128e-002 -6.0160853e-002
 -2.5259803e-002 -7.5370059e-002
 -2.9819117e-002 -8.1415232e-002
 -2.7231502e-002 -7.1446036e-002
 -1.9043274e-002 -5.1101048e-002
 -1.1051097e-002 -3.3776863e-002
 -8.4659644e-003 -2.9443699e-002
 -1.1851547e-002 -3.6311550e-002
 -1.7131241e-002 -4.2489802e-002
 -1.9379114e-002 -3.6470669e-002
 -1.6971059e-002 -1.7750079e-002
 -1.2467467e-002  1.6627147e-003
 -9.6373202e-003  6.5957332e-003
 -9.4873975e-003 -8.4460223e-003
 -9.0670243e-003 -3.3781712e-002
 -4.6042896e-003 -5.1749537e-002
  3.7875507e-003 -5.1277679e-002
  1.0345965e-002 -3.7809788e-002
  7.3074372e-003 -2.9636323e-002
 -8.3749903e-003 -4.2618390e-002
 -3.0789127e-002 -7.5495929e-002
 -4.7691144e-002 -1.0864837e-001
 -4.9102807e-002 -1.1891972e-001
 -3.5630258e-002 -9.9502224e-002
 -1.9393871e-002 -6.8161202e-002
 -1.5627914e-002 -5.5084684e-002
 -3.0410539e-002 -7.7927673e-002
 -5.4288253e-002 -1.2398857e-001
 -6.8015128e-002 -1.5622789e-001
 -5.7700905e-002 -1.4222962e-001
 -2.8343219e-002 -8.5449601e-002
 -4.1893540e-003 -3.2070054e-002
 -1.2854566e-002 -4.1725321e-002
 -6.2368219e-002 -1.3738878e-001
 -1.2748463e-001 -2.6949910e-001
 -1.5756193e-001 -3.2588218e-001
 -1.0454930e-001 -1.9082863e-001
  4.4840491e-002  1.7797261e-001
  2.5361553e-001  7.0342228e-001
  4.4751411e-001  1.2084993e+000
  5.5110237e-001  1.4971720e+000
  5.2641657e-001  1.4532926e+000
  3.9159661e-001  1.1005676e+000
  2.0886397e-001  5.8855747e-001
  4.9915103e-002  1.1354454e-001
 -4.0090444e-002 -1.7885075e-001
 -5.9426720e-002 -2.5410568e-001
 -4.0345877e-002 -1.8277467e-001
 -2.2573861e-002 -7.9948505e-002
 -2.8269570e-002 -3.2783036e-002
 -5.3290469e-002 -5.9932207e-002
 -7.7144619e-002 -1.2083886e-001
 -8.1707430e-002 -1.5929205e-001
 -6.4537289e-002 -1.4675184e-001
 -3.8648025e-002 -9.7204134e-002
 -2.1160093e-002 -4.9186362e-002
 -2.0633143e-002 -3.3552968e-002
 -3.2390677e-002 -5.2316448e-002
 -4.3974940e-002 -8.1948145e-002
 -4.5360867e-002 -9.4877624e-002
 -3.5816983e-002 -8.0713473e-002
 -2.2863538e-002 -5.1443259e-002
 -1.5253892e-002 -2.8945721e-002
 -1.6085894e-002 -2.6637586e-002
 -2.1314557e-002 -3.9992970e-002
 -2.4019942e-002 -5.2202634e-002
 -2.0316552e-002 -4.8870265e-002
 -1.2054394e-002 -2.9368935e-002
 -4.4978010e-003 -6.2119169e-003
 -1.4398609e-003  5.9792948e-003
 -1.9979755e-003  2.3513579e-003
 -1.6854074e-003 -8.9353771e-003
  3.4136626e-003 -1.4034344e-002
  1.3099267e-002 -4.7263880e-003
  2.3100140e-002  1.5480785e-002
  2.8655589e-002  3.4996114e-002
  2.8488739e-002  4.3966927e-002
  2.5892238e-002  4.2083948e-002
  2.6008731e-002  3.8239057e-002
  3.1589617e-002  4.2717423e-002
  4.0757112e-002  5.8639546e-002
  4.8633419e-002  7.9613248e-002
  5.1531322e-002  9.5290245e-002
  5.0188532e-002  1.0004060e-001
  4.9325671e-002  9.7529728e-002
  5.3639316e-002  9.7454794e-002
  6.3454168e-002  1.0711311e-001
  7.3569901e-002  1.2458657e-001
  7.6443000e-002  1.3917025e-001
  6.7466795e-002  1.3883266e-001
  4.8466785e-002  1.1896176e-001
  2.6671789e-002  8.5813131e-002
  9.8854200e-003  5.1967740e-002
  1.3549042e-003  2.7645369e-002
 -1.9206893e-003  1.4180634e-002
 -6.1674290e-003  4.7158054e-003
 -1.5634039e-002 -9.1033034e-003
 -2.9050712e-002 -2.9815513e-002
 -4.0439105e-002 -5.2021911e-002
 -4.3629802e-002 -6.6856159e-002
 -3.7027275e-002 -6.9250838e-002
 -2.5129601e-002 -6.2176359e-002
 -1.5570950e-002 -5.4462934e-002
 -1.3884975e-002 -5.3954754e-002
 -1.9859794e-002 -6.1494925e-002
 -2.8001648e-002 -7.0439243e-002
 -3.1637637e-002 -7.2052549e-002
 -2.7702495e-002 -6.2652550e-002
 -1.8707905e-002 -4.6853734e-002
 -1.0688441e-002 -3.4389468e-002
 -8.7877270e-003 -3.2943842e-002
 -1.3700202e-002 -4.2466062e-002
 -2.1507204e-002 -5.5286578e-002
 -2.6692415e-002 -6.1891134e-002
 -2.5986222e-002 -5.7880504e-002
 -2.0249421e-002 -4.6906322e-002
 -1.3344428e-002 -3.7475349e-002
 -9.0049239e-003 -3.6190235e-002
 -8.3284087e-003 -4.2770301e-002
 -9.5600318e-003 -5.0548612e-002
 -1.0081466e-002 -5.1959588e-002
 -8.7947818e-003 -4.4634783e-002
 -6.9247377e-003 -3.3320823e-002
 -6.7347616e-003 -2.6209315e-002
 -9.3281732e-003 -2.8529092e-002
 -1.3482984e-002 -3.8529539e-002
 -1.6477469e-002 -4.8861509e-002
 -1.6243343e-002 -5.2300280e-002
 -1.3087796e-002 -4.7266566e-002
 -9.5689291e-003 -3.8930425e-002
 -8.4897387e-003 -3.4954087e-002
 -1.0694807e-002 -3.9421849e-002
 -1.4419420e-002 -4.9629065e-002
 -1.6735367e-002 -5.8292365e-002
 -1.5951145e-002 -5.9403490e-002
 -1.3049529e-002 -5.3057823e-002
 -1.0932793e-002 -4.5408005e-002
 -1.2069858e-002 -4.3797036e-002
 -1.6372272e-002 -5.0880223e-002
 -2.1080025e-002 -6.2485646e-002
 -2.2878344e-002 -7.0951275e-002
 -2.0595130e-002 -7.1296434e-002
 -1.6321990e-002 -6.5305201e-002
 -1.3884221e-002 -6.0132505e-002
 -1.5776482e-002 -6.2433754e-002
 -2.0985106e-002 -7.2702025e-002
 -2.5449474e-002 -8.4406420e-002
 -2.5115575e-002 -8.8857006e-002
 -1.9279377e-002 -8.2111653e-002
 -1.1588085e-002 -6.8478352e-002
 -7.7289541e-003 -5.7650646e-002
 -1.1270618e-002 -5.7548114e-002
 -2.0684795e-002 -6.8301874e-002
 -2.9996435e-002 -8.2182232e-002
 -3.2629390e-002 -8.9438433e-002
 -2.6070799e-002 -8.5754971e-002
 -1.3886211e-002 -7.5429319e-002
 -3.5943255e-003 -6.7810255e-002
 -1.8194990e-003 -6.9914671e-002
 -1.0027471e-002 -8.0952785e-002
 -2.3695592e-002 -9.3043744e-002
 -3.5404068e-002 -9.7452709e-002
 -3.9608047e-002 -9.1390390e-002
 -3.5753319e-002 -7.9948579e-002
 -2.7915799e-002 -7.1783179e-002
 -2.1516166e-002 -7.2132929e-002
 -1.9668254e-002 -7.8924757e-002
 -2.1603159e-002 -8.5014504e-002
 -2.3928785e-002 -8.4582384e-002
 -2.3471922e-002 -7.8216986e-002
 -1.9444251e-002 -7.2335746e-002
 -1.3649429e-002 -7.3372189e-002
 -8.9939890e-003 -8.1722943e-002
 -7.6384805e-003 -9.0749687e-002
 -1.0055714e-002 -9.1954591e-002
 -1.5211773e-002 -8.2137926e-002
 -2.1260771e-002 -6.6349862e-002
 -2.6048143e-002 -5.3775589e-002
 -2.7480051e-002 -4.9769470e-002
 -2.4115352e-002 -5.0785209e-002
 -1.6084751e-002 -4.6994494e-002
 -5.7516764e-003 -3.1012697e-002
  2.9777730e-003 -5.5743555e-003
  6.7945629e-003  1.6706695e-002
  5.4132768e-003  2.2242218e-002
  2.2847680e-003  7.3676401e-003
  2.4169766e-003 -1.7913460e-002
  8.3781185e-003 -3.7192084e-002
  1.7316365e-002 -4.0837542e-002
  2.1882415e-002 -3.4369045e-002
  1.5181940e-002 -3.4402039e-002
 -3.4267113e-003 -5.4387539e-002
 -2.6282370e-002 -9.1461028e-002
 -4.1496153e-002 -1.2597528e-001
 -4.1056340e-002 -1.3585569e-001
 -2.7136461e-002 -1.1526669e-001
 -1.1472742e-002 -8.2080656e-002
 -7.2178036e-003 -6.6015923e-002
 -1.8735118e-002 -8.4791795e-002
 -3.7245529e-002 -1.2706598e-001
 -4.6747517e-002 -1.5809103e-001
 -3.6944640e-002 -1.4718889e-001
 -1.3711791e-002 -9.7321964e-002
  2.0463102e-003 -5.1341928e-002
 -1.1242066e-002 -6.3705790e-002
 -5.6763706e-002 -1.5269912e-001
 -1.0932264e-001 -2.6714697e-001
 -1.2399986e-001 -2.9782954e-001
 -6.1190219e-002 -1.3623761e-001
  8.6197967e-002  2.5075500e-001
  2.8107247e-001  7.7838565e-001
  4.5547686e-001  1.2669618e+000
  5.4313148e-001  1.5245430e+000
  5.1295381e-001  1.4448375e+000
  3.8406678e-001  1.0634102e+000
  2.1376578e-001  5.3855071e-001
  6.6249944e-002  6.8218907e-002
 -1.8952721e-002 -2.0781578e-001
 -4.0977200e-002 -2.6497663e-001
 -2.8383334e-002 -1.8232266e-001
 -1.5473640e-002 -7.7626189e-002
 -2.0726986e-002 -3.4346977e-002
 -4.0163967e-002 -6.4596271e-002
 -5.6917315e-002 -1.2350232e-001
 -5.7566697e-002 -1.5584806e-001
 -4.2646039e-002 -1.3832241e-001
 -2.4777435e-002 -9.0066944e-002
 -1.7590942e-002 -5.0356328e-002
 -2.5033379e-002 -4.5408335e-002
 -3.9033470e-002 -7.0363009e-002
 -4.6556776e-002 -9.7556661e-002
 -3.9896333e-002 -1.0112148e-001
 -2.2151680e-002 -7.7017103e-002
 -4.2110491e-003 -4.3687695e-002
  3.8337204e-003 -2.5021563e-002
 -1.0257161e-004 -3.0862654e-002
 -9.4402208e-003 -5.0481994e-002
 -1.4769599e-002 -6.2956505e-002
 -1.1074037e-002 -5.4692465e-002
 -8.6057350e-004 -2.9675729e-002
  8.7505865e-003 -4.9250495e-003
  1.2101895e-002  4.0781708e-003
  9.2203309e-003 -4.3850699e-003
  5.0777171e-003 -1.7986922e-002
  5.0297782e-003 -2.1274159e-002
  1.0425355e-002 -8.2611086e-003
  1.7984286e-002  1.3619163e-002
  2.3141471e-002  3.0794404e-002
  2.4298625e-002  3.5434571e-002
  2.4364975e-002  3.1849416e-002
  2.8279957e-002  3.2315343e-002
  3.8621462e-002  4.6186711e-002
  5.2945673e-002  7.1563673e-002
  6.5128201e-002  9.6450006e-002
  6.9703480e-002  1.0832882e-001
  6.5862104e-002  1.0421474e-001
  5.7990892e-002  9.2948602e-002
  5.2417383e-002  8.7933540e-002
  5.2847315e-002  9.6221489e-002
  5.7842613e-002  1.1265180e-001
  6.2032391e-002  1.2356471e-001
  5.9889764e-002  1.1697166e-001
  4.9226769e-002  9.1119036e-002
  3.2125169e-002  5.5072070e-002
  1.3006824e-002  2.1445059e-002
 -4.2171419e-003 -2.4677387e-003
 -1.7721098e-002 -1.8234639e-002
 -2.7375009e-002 -3.2400134e-002
 -3.3370424e-002 -4.9198078e-002
 -3.5468865e-002 -6.6316880e-002
 -3.3520467e-002 -7.7180081e-002
 -2.8615879e-002 -7.7401480e-002
 -2.3423234e-002 -6.9467282e-002
 -2.0969888e-002 -6.1481820e-002
 -2.2663997e-002 -6.0844120e-002
 -2.7183644e-002 -6.8282436e-002
 -3.1311212e-002 -7.7388339e-002
 -3.2322217e-002 -8.0159688e-002
 -2.9931100e-002 -7.3882847e-002
 -2.6449365e-002 -6.3586454e-002
 -2.4919828e-002 -5.7975164e-002
 -2.6689515e-002 -6.2036798e-002
 -3.0319780e-002 -7.2608116e-002
 -3.2788492e-002 -8.0702151e-002
 -3.1871089e-002 -7.8734495e-002
 -2.7890748e-002 -6.6814687e-002
 -2.3340538e-002 -5.2843742e-002
 -2.0803775e-002 -4.6342136e-002
 -2.0888918e-002 -5.0961331e-002
 -2.1820513e-002 -6.1715745e-002
 -2.1030660e-002 -6.9167985e-002
 -1.7378508e-002 -6.7040984e-002
 -1.2238635e-002 -5.7088083e-002
 -8.5258926e-003 -4.7286716e-002
 -8.4152638e-003 -4.4980669e-002
 -1.1631649e-002 -5.0722642e-002
 -1.5593666e-002 -5.7879164e-002
 -1.7348154e-002 -5.8307647e-002
 -1.5714468e-002 -4.9351772e-002
 -1.2075110e-002 -3.6336422e-002
 -9.3023906e-003 -2.8501418e-002
 -9.7312969e-003 -3.1661606e-002
 -1.3672820e-002 -4.3616314e-002
 -1.9426059e-002 -5.5974546e-002
 -2.4577527e-002 -6.0825456e-002
 -2.7417093e-002 -5.6706797e-002
 -2.7537054e-002 -4.9140059e-002
 -2.5514809e-002 -4.5519040e-002
 -2.2353629e-002 -4.8871433e-002
 -1.9180541e-002 -5.5739112e-002
 -1.7246016e-002 -5.9825501e-002
 -1.7664485e-002 -5.7995704e-002
 -2.0809073e-002 -5.3331637e-002
 -2.5606047e-002 -5.2402513e-002
 -2.9602271e-002 -5.9094650e-002
 -3.0243892e-002 -7.0489321e-002
 -2.6750587e-002 -7.8650128e-002
 -2.1137190e-002 -7.7119169e-002
 -1.7230267e-002 -6.6736083e-002
 -1.8077738e-002 -5.5583930e-002
 -2.3464716e-002 -5.2687804e-002
 -2.9645329e-002 -6.0521179e-002
 -3.1826730e-002 -7.2619720e-002
 -2.7813071e-002 -7.8649376e-002
 -2.0085413e-002 -7.3068272e-002
 -1.4441899e-002 -6.0156002e-002
 -1.5875983e-002 -5.1003013e-002
 -2.4664260e-002 -5.4474394e-002
 -3.5684425e-002 -6.9433319e-002
 -4.1798953e-002 -8.4846865e-002
 -3.8948477e-002 -8.8150187e-002
 -2.9157606e-002 -7.5389350e-002
 -1.9182749e-002 -5.4939136e-002
 -1.5610141e-002 -4.1359466e-002
 -2.0069677e-002 -4.4074043e-002
 -2.8183917e-002 -5.9823693e-002
 -3.3147863e-002 -7.5217424e-002
 -3.1139621e-002 -7.7526466e-002
 -2.4354021e-002 -6.5089452e-002
 -1.9234026e-002 -4.8869318e-002
 -2.1228614e-002 -4.3546417e-002
 -3.0245659e-002 -5.5309685e-002
 -4.0388715e-002 -7.6318485e-002
 -4.4286517e-002 -9.0603524e-002
 -3.8720377e-002 -8.6979885e-002
 -2.7207461e-002 -6.8353341e-002
 -1.7461325e-002 -4.9733619e-002
 -1.5648836e-002 -4.6208190e-002
 -2.1956257e-002 -6.0468121e-002
 -3.0800845e-002 -8.0147641e-002
 -3.5351890e-002 -8.7446711e-002
 -3.2692241e-002 -7.3414174e-002
 -2.5544539e-002 -4.5240546e-002
 -1.9449624e-002 -2.0414493e-002
 -1.7878057e-002 -1.2290017e-002
 -1.9473390e-002 -1.9000202e-002
 -1.9646242e-002 -2.5153058e-002
 -1.5044038e-002 -1.5359105e-002
 -6.8076700e-003  1.1535680e-002
  2.6024329e-004  3.9613320e-002
  2.0156210e-003  4.7697385e-002
 -1.0928441e-003  2.6652177e-002
 -4.1321465e-003 -1.2051179e-002
 -2.2345016e-003 -4.4376634e-002
  4.2577324e-003 -5.2573020e-002
  8.8516355e-003 -3.9661944e-002
  3.7357831e-003 -2.7114783e-002
 -1.2983620e-002 -3.6702471e-002
 -3.3852617e-002 -7.1064991e-002
 -4.6212811e-002 -1.0958251e-001
 -4.1645113e-002 -1.2441164e-001
 -2.3573049e-002 -1.0449288e-001
 -6.2717250e-003 -6.7351164e-002
 -4.7409353e-003 -4.6947644e-002
 -2.2555256e-002 -6.5482378e-002
 -4.7468235e-002 -1.1184548e-001
 -5.9700750e-002 -1.4687021e-001
 -4.8020214e-002 -1.3503181e-001
 -2.1474092e-002 -7.9190585e-002
 -6.0300163e-003 -2.7884193e-002
 -2.5777417e-002 -4.2348966e-002
 -8.0350683e-002 -1.4144345e-001
 -1.3550728e-001 -2.6486282e-001
 -1.3685492e-001 -2.8895292e-001
 -4.1545893e-002 -9.5930850e-002
  1.5074090e-001  3.4209741e-001
  3.8815788e-001  9.1984993e-001
  5.8713882e-001  1.4318739e+000
  6.7289727e-001  1.6704600e+000
  6.1699872e-001  1.5342022e+000
  4.5016364e-001  1.0827985e+000
  2.4349547e-001  5.0483334e-001
  7.0330556e-002  1.7939296e-002
 -2.8382001e-002 -2.3909741e-001
 -5.6156259e-002 -2.6072093e-001
 -4.6983468e-002 -1.5015768e-001
 -3.7803195e-002 -4.0152172e-002
 -4.6357076e-002 -1.3082085e-002
 -6.6728576e-002 -6.7698688e-002
 -8.1591962e-002 -1.4413510e-001
 -7.9309001e-002 -1.8008028e-001
 -6.2911811e-002 -1.5567055e-001
 -4.5899258e-002 -9.9184200e-002
 -4.0342988e-002 -5.7137989e-002
 -4.7521958e-002 -5.6406229e-002
 -5.8104129e-002 -8.7228528e-002
 -6.0721240e-002 -1.1643724e-001
 -5.1246906e-002 -1.1655185e-001
 -3.5491477e-002 -8.6598829e-002
 -2.3704385e-002 -4.9750464e-002
 -2.1887547e-002 -3.2283690e-002
 -2.7184277e-002 -4.2301999e-002
 -3.0849683e-002 -6.4879584e-002
 -2.6007148e-002 -7.5923054e-002
 -1.3675693e-002 -6.2223058e-002
 -2.1003116e-003 -3.1376560e-002
 -4.3779190e-005 -4.4944770e-003
 -9.4089093e-003  1.4450815e-003
 -2.3167321e-002 -1.3089860e-002
 -3.0274500e-002 -3.1384733e-002
 -2.3871408e-002 -3.4380217e-002
 -6.4216014e-003 -1.5607924e-002
  1.2025321e-002  1.4575186e-002
  2.1124348e-002  3.8157113e-002
  1.7492052e-002  4.3988126e-002
  6.7200725e-003  3.6027624e-002
 -1.1168428e-003  2.9204630e-002
  1.2246735e-003  3.6919638e-002
  1.3432852e-002  6.0516414e-002
  2.8709286e-002  8.8927999e-002
  3.9394690e-002  1.0815123e-001
  4.2448450e-002  1.1239992e-001
  4.0778183e-002  1.0792196e-001
  3.9751552e-002  1.0671063e-001
  4.2140296e-002  1.1561937e-001
  4.5640408e-002  1.2987524e-001
  4.4822612e-002  1.3624307e-001
  3.5843090e-002  1.2331240e-001
