  8.3627864e-004 -1.7887472e-002
  1.7905646e-003 -2.8282964e-002
 -1.3039680e-003 -3.7957904e-002
 -6.1994724e-003 -3.9565982e-002
 -9.7528090e-003 -3.1834782e-002
 -9.9508908e-003 -2.0309947e-002
 -7.1955176e-003 -1.3138050e-002
 -3.9966572e-003 -1.5166234e-002
 -3.2670122e-003 -2.4727375e-002
 -6.2958548e-003 -3.5221804e-002
 -1.1747065e-002 -4.0049550e-002
 -1.6417520e-002 -3.7072802e-002
 -1.7284444e-002 -2.9425121e-002
 -1.3523670e-002 -2.2480985e-002
 -7.1512824e-003 -1.9676936e-002
 -1.8300177e-003 -2.0524242e-002
 -6.0332521e-004 -2.2015376e-002
 -4.0608817e-003 -2.1822742e-002
 -1.0091317e-002 -2.0353374e-002
 -1.5419631e-002 -1.9958407e-002
 -1.7815189e-002 -2.2255701e-002
 -1.7397370e-002 -2.6126740e-002
 -1.6162969e-002 -2.8349870e-002
 -1.6220427e-002 -2.6457798e-002
 -1.8129155e-002 -2.1270768e-002
 -2.0620584e-002 -1.6685006e-002
 -2.1900298e-002 -1.6644220e-002
 -2.1411619e-002 -2.1728925e-002
 -2.0492063e-002 -2.8375867e-002
 -2.1223708e-002 -3.1543215e-002
 -2.4328745e-002 -2.8733094e-002
 -2.7874672e-002 -2.1944603e-002
 -2.8204570e-002 -1.5702689e-002
 -2.2726756e-002 -1.2721137e-002
 -1.2544502e-002 -1.1017834e-002
 -2.6559803e-003 -5.3802351e-003
  9.5670612e-004  7.5778308e-003
 -4.3193743e-003  2.4997614e-002
 -1.5156450e-002  3.8206680e-002
 -2.3726138e-002  3.8587916e-002
 -2.2637068e-002  2.4717341e-002
 -1.0129117e-002  4.9319136e-003
  8.3400956e-003 -7.5484561e-003
  2.3513493e-002 -4.0706300e-003
  2.8602728e-002  1.2489407e-002
  2.4003528e-002  2.9056134e-002
  1.6736439e-002  3.1609826e-002
  1.4812820e-002  1.5615938e-002
  2.0588611e-002 -1.0521237e-002
  2.8281977e-002 -3.2033313e-002
  2.7999814e-002 -3.9445380e-002
  1.3717082e-002 -3.5872444e-002
 -1.0808317e-002 -3.3669007e-002
 -3.3164736e-002 -4.2707261e-002
 -4.0430915e-002 -6.0126023e-002
 -2.8835979e-002 -7.1262566e-002
 -7.5319813e-003 -6.2713308e-002
  7.2771683e-003 -3.7474930e-002
  4.6919295e-003 -1.8029485e-002
 -1.0790554e-002 -3.0735065e-002
 -1.9576334e-002 -7.9665700e-002
  7.7434678e-004 -1.2934507e-001
  5.8269170e-002 -1.1390146e-001
  1.3574431e-001  2.6148162e-002
  1.9515305e-001  2.9883539e-001
  1.9622017e-001  6.3708470e-001
  1.1932501e-001  9.1699440e-001
 -2.1079074e-002  1.0138454e+000
 -1.8101442e-001  8.6685721e-001
 -3.0735004e-001  5.1526803e-001
 -3.6254470e-001  8.3178978e-002
 -3.4006240e-001 -2.7980430e-001
 -2.6294130e-001 -4.6906626e-001
 -1.6816102e-001 -4.6775388e-001
 -8.7260198e-002 -3.4064538e-001
 -3.4356777e-002 -1.8754191e-001
 -6.4754081e-003 -8.6870610e-002
  7.1394459e-003 -6.2207759e-002
  1.4802872e-002 -8.6430359e-002
  1.8121175e-002 -1.1357978e-001
  1.4937487e-002 -1.1341238e-001
  5.1602226e-003 -8.6651994e-002
 -6.1707581e-003 -5.5527777e-002
 -1.1302801e-002 -4.1520349e-002
 -5.5303949e-003 -4.8710793e-002
  8.6378716e-003 -6.3650838e-002
  2.2549296e-002 -6.8857714e-002
  2.7198793e-002 -5.7440324e-002
  1.9601788e-002 -3.7326731e-002
  5.0739894e-003 -2.3107156e-002
 -6.2778417e-003 -2.3312262e-002
 -6.4397935e-003 -3.3790258e-002
  5.1102815e-003 -4.1950975e-002
  2.1153376e-002 -3.7650966e-002
  3.1617705e-002 -2.1545747e-002
  3.0195237e-002 -4.2882476e-003
  1.8244282e-002  2.3921422e-003
  3.6151282e-003 -4.6621202e-003
 -4.4838150e-003 -1.7342333e-002
 -1.0326385e-003 -2.2533808e-002
  1.2303313e-002 -1.2247478e-002
  2.8989680e-002  1.0272411e-002
  4.2096953e-002  3.3030843e-002
  4.8353033e-002  4.4197640e-002
  4.9362860e-002  4.0594785e-002
  4.9673403e-002  2.9557662e-002
  5.3345284e-002  2.3147539e-002
  6.1321703e-002  2.9373394e-002
  7.1178667e-002  4.6975785e-002
  7.9114597e-002  6.7277508e-002
  8.2755265e-002  8.1197536e-002
  8.2904305e-002  8.5856899e-002
  8.3193748e-002  8.6060639e-002
  8.7932925e-002  9.0063064e-002
  9.9380329e-002  1.0319085e-001
  1.1605906e-001  1.2416635e-001
  1.3315018e-001  1.4644180e-001
  1.4486224e-001  1.6307842e-001
  1.4749143e-001  1.7118559e-001
  1.4148066e-001  1.7280982e-001
  1.3116644e-001  1.7208153e-001
  1.2230276e-001  1.7124868e-001
  1.1869916e-001  1.6876602e-001
  1.1988909e-001  1.6061112e-001
  1.2130485e-001  1.4348234e-001
  1.1694374e-001  1.1728796e-001
  1.0298951e-001  8.5186250e-002
  8.0200246e-002  5.1461601e-002
  5.3637462e-002  1.9157997e-002
  2.9936187e-002 -1.0687081e-002
  1.3848720e-002 -3.7952255e-002
  6.1282573e-003 -6.1778261e-002
  3.8596351e-003 -8.0063922e-002
  2.7681308e-003 -9.0667574e-002
 -9.4145805e-005 -9.3320826e-002
 -5.0728881e-003 -9.0612184e-002
 -1.0517737e-002 -8.7001491e-002
 -1.4600622e-002 -8.6336281e-002
 -1.6850436e-002 -8.9543637e-002
 -1.8335136e-002 -9.4149014e-002
 -2.0571957e-002 -9.6071047e-002
 -2.4069546e-002 -9.2373100e-002
 -2.7723512e-002 -8.3145922e-002
 -2.9579968e-002 -7.1437594e-002
 -2.8265340e-002 -6.1258158e-002
 -2.4118898e-002 -5.5195510e-002
 -1.9115934e-002 -5.3272568e-002
 -1.5662633e-002 -5.3372273e-002
 -1.5130886e-002 -5.2913622e-002
 -1.6981597e-002 -5.0428316e-002
 -1.9057323e-002 -4.6079465e-002
 -1.8850971e-002 -4.0993870e-002
 -1.4925835e-002 -3.6187473e-002
 -7.7283014e-003 -3.1925461e-002
  6.3517552e-004 -2.8005016e-002
  7.4863483e-003 -2.4474750e-002
  1.0873244e-002 -2.2105848e-002
  1.0437871e-002 -2.2027680e-002
  7.5132291e-003 -2.4737910e-002
  4.3621918e-003 -2.9321265e-002
  2.9522290e-003 -3.3630331e-002
  3.9163013e-003 -3.5473130e-002
  6.2987317e-003 -3.4003319e-002
  8.1718693e-003 -3.0393663e-002
  7.8118285e-003 -2.7150967e-002
  4.7295972e-003 -2.6530274e-002
 -4.3484134e-005 -2.9021416e-002
 -4.6081656e-003 -3.3047509e-002
 -7.3105515e-003 -3.6057439e-002
 -7.6234740e-003 -3.6242953e-002
 -6.2157175e-003 -3.3685052e-002
 -4.2405134e-003 -3.0112820e-002
 -2.4966846e-003 -2.7593072e-002
 -1.0658846e-003 -2.7176110e-002
  3.2329089e-004 -2.8432688e-002
  1.5571846e-003 -3.0173075e-002
  1.7985313e-003 -3.1652864e-002
 -4.5200491e-005 -3.3146309e-002
 -4.2996587e-003 -3.5415404e-002
 -9.8541814e-003 -3.8817771e-002
 -1.4468096e-002 -4.2462101e-002
 -1.6094518e-002 -4.4576593e-002
 -1.4267107e-002 -4.3777696e-002
 -1.0511785e-002 -4.0212460e-002
 -7.3844768e-003 -3.5634853e-002
 -6.7198837e-003 -3.2228280e-002
 -8.4140806e-003 -3.1108169e-002
 -1.0606574e-002 -3.1677599e-002
 -1.1163715e-002 -3.2394616e-002
 -9.3395772e-003 -3.2259704e-002
 -6.2891339e-003 -3.1689263e-002
 -4.0986160e-003 -3.2013281e-002
 -4.0600526e-003 -3.3955339e-002
 -5.6430520e-003 -3.6498117e-002
 -6.9937326e-003 -3.7308130e-002
 -6.6057863e-003 -3.4601412e-002
 -4.7656523e-003 -2.9018140e-002
 -3.5360716e-003 -2.3748292e-002
 -5.1391397e-003 -2.2486449e-002
 -9.9598798e-003 -2.6599775e-002
 -1.5854960e-002 -3.3744216e-002
 -1.9428156e-002 -3.9195905e-002
 -1.8495316e-002 -3.9166523e-002
 -1.3880540e-002 -3.3633038e-002
 -9.1096733e-003 -2.6481914e-002
 -8.0414153e-003 -2.2658848e-002
 -1.2051581e-002 -2.4430914e-002
 -1.8819922e-002 -2.9674904e-002
 -2.3655632e-002 -3.3566866e-002
 -2.2541955e-002 -3.2361174e-002
 -1.4837351e-002 -2.6302370e-002
 -3.8365927e-003 -1.9359797e-002
  5.1168926e-003 -1.6075060e-002
  7.6466463e-003 -1.8046877e-002
  2.6196171e-003 -2.2946543e-002
 -7.5305389e-003 -2.6756804e-002
 -1.8375234e-002 -2.7195813e-002
 -2.5681836e-002 -2.5225247e-002
 -2.7071715e-002 -2.3305321e-002
 -2.2559322e-002 -2.2054365e-002
 -1.4150103e-002 -1.8631758e-002
 -5.0026867e-003 -8.8662768e-003
  1.5988219e-003  8.1737725e-003
  3.3919188e-003  2.7196467e-002
  1.7837540e-004  3.8636296e-002
 -5.7100016e-003  3.5134417e-002
 -1.0159252e-002  1.7951406e-002
 -9.2553318e-003 -2.1680221e-003
 -1.5799816e-003 -1.1445860e-002
  1.0632695e-002 -2.8506753e-003
  2.2447434e-002  1.8032284e-002
  2.8922065e-002  3.6039869e-002
  2.7836886e-002  3.6878627e-002
  2.0619786e-002  1.7505913e-002
  1.0926262e-002 -1.1549113e-002
  1.9789728e-003 -3.4133380e-002
 -5.2247207e-003 -4.0762952e-002
 -1.1500264e-002 -3.5550700e-002
 -1.7427833e-002 -3.1842526e-002
 -2.1768605e-002 -3.9793177e-002
 -2.2046761e-002 -5.6262693e-002
 -1.7078884e-002 -6.6400078e-002
 -9.1003641e-003 -5.7067275e-002
 -2.9778349e-003 -3.1636554e-002
 -2.1475285e-003 -1.2226487e-002
 -4.0408154e-003 -2.3638617e-002
  8.1020479e-004 -6.7927408e-002
  2.3471636e-002 -1.0903390e-001
  6.7236358e-002 -8.3729527e-002
  1.2024058e-001  6.1643855e-002
  1.5639851e-001  3.2872772e-001
  1.4649063e-001  6.4758356e-001
  7.4459206e-002  8.9803429e-001
 -5.0368094e-002  9.6544739e-001
 -1.9335959e-001  8.0129356e-001
 -3.0849510e-001  4.5296043e-001
 -3.5920005e-001  4.3826372e-002
 -3.3486270e-001 -2.8631846e-001
 -2.5402642e-001 -4.4699980e-001
 -1.5304794e-001 -4.3262665e-001
 -6.7363937e-002 -3.1086459e-001
 -1.6041113e-002 -1.7524298e-001
  2.5450016e-003 -9.2995172e-002
  3.4650167e-003 -7.8108479e-002
  2.7228035e-003 -1.0036560e-001
  7.8538197e-003 -1.1773979e-001
  1.6486632e-002 -1.0742663e-001
  2.1841566e-002 -7.6129186e-002
  1.9847991e-002 -4.7397672e-002
  1.2595497e-002 -3.9574166e-002
  6.4118584e-003 -5.1908426e-002
  6.8036728e-003 -6.7658566e-002
  1.4529443e-002 -6.9149859e-002
  2.5403835e-002 -5.1743796e-002
  3.3514300e-002 -2.6231651e-002
  3.5105786e-002 -9.1791062e-003
  3.0434012e-002 -9.8733002e-003
  2.2859890e-002 -2.4040317e-002
  1.6391202e-002 -3.8305390e-002
  1.3636027e-002 -4.0844062e-002
  1.5211755e-002 -2.9594074e-002
  2.0302488e-002 -1.2187985e-002
  2.7401528e-002  1.2266492e-003
  3.4604596e-002  5.8701760e-003
  3.9760374e-002  4.8401365e-003
  4.1111152e-002  5.1404798e-003
  3.8426787e-002  1.1276206e-002
  3.3789218e-002  2.1843771e-002
  3.1006470e-002  3.1499444e-002
  3.3622592e-002  3.6089385e-002
  4.2533325e-002  3.6256322e-002
  5.5016126e-002  3.6661148e-002
  6.6149888e-002  4.1785037e-002
  7.1843350e-002  5.2145360e-002
  7.1544755e-002  6.4140012e-002
  6.8674333e-002  7.3445318e-002
  6.8413928e-002  7.8903921e-002
  7.4384749e-002  8.3578961e-002
  8.6462322e-002  9.2129479e-002
  1.0113157e-001  1.0682400e-001
  1.1391923e-001  1.2549709e-001
  1.2207446e-001  1.4312533e-001
  1.2568430e-001  1.5557391e-001
  1.2676348e-001  1.6238050e-001
  1.2731186e-001  1.6637917e-001
  1.2795927e-001  1.7064201e-001
  1.2800722e-001  1.7541949e-001
  1.2642890e-001  1.7753683e-001
  1.2267348e-001  1.7260572e-001
  1.1658598e-001  1.5809754e-001
  1.0776375e-001  1.3481593e-001
  9.5303095e-002  1.0586472e-001
  7.8555395e-002  7.4348210e-002
  5.8346351e-002  4.1983147e-002
  3.7549787e-002  9.6774368e-003
  2.0069133e-002 -2.0870964e-002
  8.6302384e-003 -4.6543334e-002
  2.9608702e-003 -6.4175175e-002
 -8.1819276e-005 -7.2958451e-002
 -4.3382431e-003 -7.5727309e-002
 -1.1528126e-002 -7.7549937e-002
 -1.9981156e-002 -8.2333152e-002
 -2.5974460e-002 -9.0012742e-002
 -2.6851054e-002 -9.6684423e-002
 -2.3536157e-002 -9.7852169e-002
 -2.0348052e-002 -9.2258866e-002
 -2.2034278e-002 -8.3203786e-002
 -3.0136034e-002 -7.6173705e-002
 -4.1421233e-002 -7.4558714e-002
 -4.9730944e-002 -7.6854857e-002
 -5.0080092e-002 -7.7697093e-002
 -4.2172499e-002 -7.2123148e-002
 -3.0725442e-002 -5.9668480e-002
 -2.2352323e-002 -4.5099124e-002
 -2.1158099e-002 -3.5012496e-002
 -2.6121509e-002 -3.2913166e-002
 -3.2084345e-002 -3.6662641e-002
 -3.3428866e-002 -4.0213450e-002
 -2.7892268e-002 -3.8296583e-002
 -1.7908668e-002 -3.0425118e-002
 -8.7886535e-003 -2.1152905e-002
 -5.1303374e-003 -1.6287497e-002
 -8.1237495e-003 -1.8454637e-002
 -1.5254323e-002 -2.5209248e-002
 -2.2326014e-002 -3.1070870e-002
 -2.6043009e-002 -3.1801664e-002
 -2.5438036e-002 -2.7383560e-002
 -2.1565682e-002 -2.1535556e-002
 -1.6231897e-002 -1.8398478e-002
 -1.0967333e-002 -1.9258620e-002
 -6.8414723e-003 -2.1972085e-002
 -4.8419246e-003 -2.3434968e-002
 -5.8957888e-003 -2.2715942e-002
 -1.0289202e-002 -2.2060754e-002
 -1.6898816e-002 -2.4793948e-002
 -2.3146130e-002 -3.1890392e-002
 -2.6153694e-002 -4.0344841e-002
 -2.4484730e-002 -4.4877771e-002
 -1.9256478e-002 -4.1885479e-002
 -1.3642047e-002 -3.2477069e-002
 -1.0998378e-002 -2.2115903e-002
 -1.2799746e-002 -1.6882938e-002
 -1.7764020e-002 -1.9234461e-002
 -2.2884636e-002 -2.6529253e-002
 -2.5451415e-002 -3.3298228e-002
 -2.4716539e-002 -3.5457372e-002
 -2.2088197e-002 -3.3160179e-002
 -1.9828855e-002 -3.0042327e-002
 -1.9395670e-002 -2.9818876e-002
 -2.0569253e-002 -3.3050411e-002
 -2.1852881e-002 -3.6698935e-002
 -2.1813980e-002 -3.7038460e-002
 -2.0114993e-002 -3.3014258e-002
 -1.7723838e-002 -2.7357059e-002
 -1.6239364e-002 -2.4513784e-002
 -1.6861391e-002 -2.7029663e-002
 -1.9790408e-002 -3.3401135e-002
 -2.4171047e-002 -3.9112848e-002
 -2.8528493e-002 -4.0020750e-002
 -3.1241986e-002 -3.5315051e-002
 -3.1017129e-002 -2.7813378e-002
 -2.7364859e-002 -2.1527458e-002
 -2.0980319e-002 -1.8674397e-002
 -1.3771090e-002 -1.8584735e-002
 -8.2662105e-003 -1.9168086e-002
 -6.4377261e-003 -1.9330130e-002
 -8.4941639e-003 -1.9977939e-002
 -1.2557998e-002 -2.2706031e-002
 -1.5661916e-002 -2.7489057e-002
 -1.5549160e-002 -3.1694801e-002
 -1.2157454e-002 -3.1713144e-002
 -7.6851846e-003 -2.6053819e-002
 -5.1203564e-003 -1.7256755e-002
 -6.1663953e-003 -1.0636085e-002
 -1.0062997e-002 -1.0512471e-002
 -1.4160724e-002 -1.6813448e-002
 -1.5820511e-002 -2.4925217e-002
 -1.4229197e-002 -2.9052134e-002
 -1.0767603e-002 -2.6509062e-002
 -7.8384203e-003 -1.9573951e-002
 -7.1221422e-003 -1.3413279e-002
 -8.6298429e-003 -1.1879966e-002
 -1.1199879e-002 -1.4707888e-002
 -1.3829608e-002 -1.8409824e-002
 -1.6534260e-002 -1.9923594e-002
 -1.9883957e-002 -1.9449710e-002
 -2.3734108e-002 -1.9696260e-002
 -2.6462023e-002 -2.2062898e-002
 -2.5746097e-002 -2.3425449e-002
 -2.0521342e-002 -1.7208736e-002
 -1.2461499e-002  1.1523390e-003
 -5.5033346e-003  2.8471831e-002
 -3.2854641e-003  5.3205379e-002
 -6.2487665e-003  6.1947222e-002
 -1.0748268e-002  4.9125201e-002
 -1.1221325e-002  2.2483606e-002
 -4.1614950e-003 -8.0572965e-004
  9.0335836e-003 -5.6093486e-003
  2.2602472e-002  1.0096894e-002
  3.0184893e-002  3.3182309e-002
  2.9101152e-002  4.4572545e-002
  2.1914529e-002  3.3298853e-002
  1.4012560e-002  4.6846725e-003
  9.0820139e-003 -2.3999924e-002
  6.1682079e-003 -3.7361408e-002
  8.5708617e-004 -3.4162229e-002
 -1.0251525e-002 -2.7830026e-002
 -2.5449760e-002 -3.4089983e-002
 -3.7959421e-002 -5.5730428e-002
 -4.0701017e-002 -7.7940830e-002
 -3.2152922e-002 -7.9957105e-002
 -1.8331127e-002 -5.4974819e-002
 -8.3902389e-003 -2.1309853e-002
 -6.4415454e-003 -1.2002818e-002
 -5.9876652e-003 -4.6170152e-002
  7.4050113e-003 -1.0212892e-001
  4.5183639e-002 -1.1591012e-001
  1.0343659e-001 -1.4079389e-002
  1.5830679e-001  2.3455120e-001
  1.7469109e-001  5.8131956e-001
  1.2509549e-001  9.0358074e-001
  7.9507077e-003  1.0584101e+000
 -1.4635946e-001  9.5727456e-001
 -2.8698954e-001  6.1822300e-001
 -3.6620492e-001  1.6277366e-001
 -3.6196673e-001 -2.4305753e-001
 -2.8685300e-001 -4.7041942e-001
 -1.7886097e-001 -4.8545621e-001
 -8.0407430e-002 -3.5221865e-001
 -1.8209585e-002 -1.8366290e-001
  5.0241761e-003 -7.4158118e-002
  4.4772015e-003 -5.4576985e-002
 -9.8196425e-004 -9.2566775e-002
 -8.8839903e-004 -1.2998694e-001
  3.8955637e-003 -1.2754321e-001
  6.9303610e-003 -8.6953057e-002
  4.5256206e-003 -4.0292589e-002
 -3.4141131e-004 -1.9981923e-002
 -9.0988052e-004 -3.3910877e-002
  6.9011434e-003 -6.2857976e-002
  2.0240701e-002 -7.8797686e-002
  3.0868945e-002 -6.7533753e-002
  3.1341130e-002 -3.8023795e-002
  2.0859216e-002 -1.2796580e-002
  6.1405957e-003 -8.8433806e-003
 -3.2884269e-003 -2.4647612e-002
 -1.8106309e-003 -4.2825248e-002
  8.5627853e-003 -4.5096213e-002
  2.0147712e-002 -2.6904919e-002
  2.5552300e-002 -2.8204526e-004
  2.3009421e-002  1.6536065e-002
  1.7230317e-002  1.3763092e-002
  1.5359234e-002 -2.6927637e-003
  2.1313924e-002 -1.6611137e-002
  3.2842043e-002 -1.4489771e-002
  4.3401260e-002  4.2916984e-003
  4.7189588e-002  2.7888124e-002
  4.3528110e-002  4.2047503e-002
  3.7279939e-002  4.1330848e-002
  3.5203705e-002  3.2702571e-002
  4.1042473e-002  2.9131326e-002
  5.3029975e-002  3.8911184e-002
  6.5434634e-002  5.9375642e-002
  7.2784496e-002  7.9698531e-002
  7.3637879e-002  9.0109489e-002
  7.1209308e-002  8.9829279e-002
  7.0747804e-002  8.7422204e-002
  7.5769556e-002  9.3593822e-002
  8.5900712e-002  1.1242786e-001
  9.7605586e-002  1.3814389e-001
  1.0692750e-001  1.5974055e-001
  1.1199611e-001  1.6953996e-001
  1.1359348e-001  1.6869448e-001
  1.1375352e-001  1.6543510e-001
  1.1375328e-001  1.6771594e-001
  1.1316439e-001  1.7628406e-001
  1.1046156e-001  1.8364526e-001
  1.0450358e-001  1.7962266e-001
  9.5534994e-002  1.5892890e-001
  8.4946879e-002  1.2485439e-001
  7.4119046e-002  8.6432182e-002
  6.3473525e-002  5.1786718e-002
  5.2449665e-002  2.3042105e-002
  4.0380074e-002 -3.3769096e-003
  2.7428551e-002 -3.1807669e-002
  1.4826047e-002 -6.2215321e-002
  4.2105998e-003 -8.9219087e-002
 -3.3228961e-003 -1.0599511e-001
 -7.7978894e-003 -1.0977024e-001
 -1.0202976e-002 -1.0424805e-001
 -1.1849757e-002 -9.7042623e-002
 -1.3856960e-002 -9.4253072e-002
 -1.6958811e-002 -9.6543945e-002
 -2.1498119e-002 -9.9680895e-002
 -2.7248634e-002 -9.8778714e-002
 -3.3113408e-002 -9.2574842e-002
 -3.7034442e-002 -8.4163216e-002
 -3.6647792e-002 -7.7821080e-002
 -3.0592307e-002 -7.4880547e-002
 -1.9821689e-002 -7.2411134e-002
 -7.7969645e-003 -6.5912890e-002
  9.0263204e-004 -5.3773145e-002
  2.9325631e-003 -3.9526837e-002
 -1.9337381e-003 -2.9757993e-002
 -1.0674834e-002 -2.9075092e-002
 -1.8800644e-002 -3.6153780e-002
 -2.2910256e-002 -4.4252096e-002
 -2.2362923e-002 -4.6045547e-002
 -1.9070386e-002 -3.9157857e-002
 -1.5675077e-002 -2.7974338e-002
 -1.3669908e-002 -2.0285314e-002
 -1.2758959e-002 -2.1354443e-002
 -1.1743965e-002 -2.9943084e-002
 -1.0010972e-002 -3.9383722e-002
 -8.2280011e-003 -4.2824786e-002
 -7.6181562e-003 -3.8340238e-002
 -8.5636327e-003 -3.0184323e-002
 -9.7987393e-003 -2.5165421e-002
 -9.1568220e-003 -2.7017278e-002
 -5.4731840e-003 -3.3502757e-002
 -1.1841684e-005 -3.8413953e-002
  3.9239699e-003 -3.6815983e-002
  3.1918432e-003 -2.9265732e-002
 -2.7018018e-003 -2.1636222e-002
 -1.0781104e-002 -2.0638393e-002
 -1.6314425e-002 -2.8558119e-002
 -1.5973960e-002 -4.1286708e-002
 -1.0255124e-002 -5.1169253e-002
 -3.2632454e-003 -5.2438117e-002
  5.6062477e-005 -4.5067298e-002
 -2.6632508e-003 -3.4316353e-002
 -9.5803630e-003 -2.6638760e-002
 -1.6040802e-002 -2.5307844e-002
 -1.7881470e-002 -2.8907039e-002
 -1.4352210e-002 -3.3454538e-002
 -8.4394606e-003 -3.5972977e-002
 -4.5351605e-003 -3.6431807e-002
 -5.2383228e-003 -3.6905011e-002
 -9.5770150e-003 -3.8782269e-002
 -1.4008926e-002 -4.0998514e-002
 -1.5203618e-002 -4.0880618e-002
 -1.2429619e-002 -3.6825829e-002
 -7.8322724e-003 -3.0298392e-002
 -4.5766497e-003 -2.5182034e-002
 -4.4727209e-003 -2.4881557e-002
 -6.8669174e-003 -2.9452280e-002
 -9.5818412e-003 -3.5286608e-002
 -1.0943038e-002 -3.7792415e-002
 -1.1140019e-002 -3.4953549e-002
 -1.1810981e-002 -2.8880216e-002
 -1.4315568e-002 -2.4091064e-002
 -1.8227687e-002 -2.3943828e-002
 -2.1385493e-002 -2.8113685e-002
 -2.1459158e-002 -3.3071891e-002
 -1.7797975e-002 -3.5100965e-002
 -1.2020264e-002 -3.3209446e-002
 -6.8985558e-003 -2.9566820e-002
 -4.4458314e-003 -2.7197225e-002
 -4.7227590e-003 -2.7117264e-002
 -6.2930608e-003 -2.7539226e-002
 -7.7529048e-003 -2.5869652e-002
 -8.9431090e-003 -2.1636294e-002
 -1.0722263e-002 -1.7529771e-002
 -1.3592229e-002 -1.7358897e-002
 -1.6449929e-002 -2.2426312e-002
 -1.6866624e-002 -2.9589694e-002
 -1.2862864e-002 -3.3053357e-002
 -4.9134590e-003 -2.8901348e-002
  3.6296543e-003 -1.8753814e-002
  8.3034509e-003 -9.3138325e-003
  6.4989603e-003 -7.6468847e-003
 -6.1362237e-004 -1.5715799e-002
 -8.6670001e-003 -2.8503233e-002
 -1.2891235e-002 -3.7446544e-002
 -1.1142816e-002 -3.6721745e-002
 -5.0350934e-003 -2.7494755e-002
  1.5235150e-003 -1.6750384e-002
  5.1894832e-003 -1.1616872e-002
  5.2275731e-003 -1.3794154e-002
  3.3399932e-003 -1.8685417e-002
  1.6485909e-003 -1.9900266e-002
  7.4394063e-004 -1.5193635e-002
 -5.7375189e-004 -8.5625453e-003
 -3.7534420e-003 -6.4469325e-003
 -8.6245713e-003 -1.1085430e-002
 -1.2953329e-002 -1.7024633e-002
 -1.3961433e-002 -1.4541739e-002
 -1.0615985e-002  2.0329646e-003
 -4.6990327e-003  2.7789195e-002
  3.8291221e-004  4.8671272e-002
  2.1957532e-003  5.0964099e-002
  1.2084155e-003  3.2149031e-002
  4.0025169e-004  4.3740634e-003
  2.8041938e-003 -1.3157380e-002
  8.9766866e-003 -7.9971162e-003
  1.6440229e-002  1.5795673e-002
  2.1542140e-002  3.9899242e-002
  2.2180869e-002  4.4981945e-002
  1.9078808e-002  2.5171434e-002
  1.4553653e-002 -7.5581924e-003
  9.9943764e-003 -3.2880264e-002
  4.4782672e-003 -3.8207275e-002
 -3.9930986e-003 -2.8472813e-002
 -1.5606590e-002 -2.1266697e-002
 -2.6968240e-002 -3.0814197e-002
 -3.2641330e-002 -5.4074961e-002
 -2.9403709e-002 -7.1686475e-002
 -1.9805174e-002 -6.4826188e-002
 -1.1297612e-002 -3.4989898e-002
 -1.0355660e-002 -8.6461377e-003
 -1.5401400e-002 -1.8568675e-002
 -1.4589175e-002 -7.2100549e-002
  7.9201251e-003 -1.3028211e-001
  5.9558890e-002 -1.1859582e-001
  1.2879395e-001  3.0011465e-002
  1.8485350e-001  3.2352116e-001
  1.9072286e-001  6.8539483e-001
  1.2353960e-001  9.7778223e-001
 -9.4316138e-003  1.0664586e+000
 -1.6975401e-001  8.9247189e-001
 -3.0389801e-001  5.0813193e-001
 -3.6825703e-001  5.4449320e-002
 -3.4916615e-001 -3.0830907e-001
 -2.6694955e-001 -4.7741021e-001
 -1.6251893e-001 -4.4892573e-001
 -7.5259427e-002 -3.0343727e-001
 -2.5328746e-002 -1.4996711e-001
 -9.3805227e-003 -6.4833070e-002
 -9.8033150e-003 -6.0682549e-002
 -9.4047248e-003 -9.8140917e-002
 -1.5586264e-003 -1.2496891e-001
  9.4337785e-003 -1.1330423e-001
  1.5568312e-002 -7.2113639e-002
  1.3172898e-002 -3.1994018e-002
  5.6490505e-003 -1.8300744e-002
 -1.7455831e-004 -3.3439243e-002
 -1.2426403e-004 -5.9039009e-002
  4.0972348e-003 -7.2795544e-002
  6.9929987e-003 -6.5195878e-002
  4.5305171e-003 -4.3898134e-002
 -1.9911247e-003 -2.4644758e-002
 -6.6902740e-003 -1.7736866e-002
 -3.8587749e-003 -2.1111225e-002
  7.1275969e-003 -2.4388253e-002
  2.0677699e-002 -1.9084327e-002
  2.8672712e-002 -5.9038832e-003
  2.6278254e-002  6.5610209e-003
  1.5564714e-002  9.8389305e-003
  4.2760789e-003  3.1393933e-003
  6.8113939e-004 -5.7788456e-003
  8.1579839e-003 -6.8590294e-003
  2.3239186e-002  4.2408564e-003
  3.8170833e-002  2.2854382e-002
  4.6019417e-002  3.9135620e-002
  4.4763262e-002  4.5656570e-002
  3.7865314e-002  4.2705531e-002
  3.1440642e-002  3.7431856e-002
  3.0334604e-002  3.8018812e-002
  3.5710147e-002  4.7764972e-002
  4.5338110e-002  6.3500937e-002
  5.5794697e-002  7.9005183e-002
  6.4718757e-002  9.0184789e-002
  7.1745553e-002  9.7759553e-002
  7.7940892e-002  1.0570499e-001
  8.4601793e-002  1.1728688e-001
  9.2381042e-002  1.3230440e-001
  1.0119943e-001  1.4769968e-001
  1.1053454e-001  1.6056809e-001
  1.1961181e-001  1.7064178e-001
  1.2737792e-001  1.7995336e-001
  1.3247672e-001  1.9003650e-001
  1.3355521e-001  1.9923386e-001
  1.2987437e-001  2.0266463e-001
  1.2182027e-001  1.9519869e-001
  1.1081583e-001  1.7509978e-001
  9.8611616e-002  1.4544835e-001
  8.6366542e-002  1.1216990e-001
  7.4155356e-002  8.0250587e-002
  6.1221011e-002  5.1078018e-002
  4.6812803e-002  2.2833699e-002
  3.0990451e-002 -6.6003337e-003
  1.4916795e-002 -3.6767459e-002
  4.7019642e-004 -6.4128770e-002
 -1.0536518e-002 -8.4291593e-002
 -1.7080583e-002 -9.5071146e-002
 -1.9300879e-002 -9.7919716e-002
 -1.8408658e-002 -9.6700487e-002
 -1.6206096e-002 -9.4895117e-002
 -1.4410235e-002 -9.3521289e-002
 -1.4009471e-002 -9.1275889e-002
 -1.4906640e-002 -8.6482774e-002
 -1.6127329e-002 -7.9102058e-002
 -1.6567885e-002 -7.1103308e-002
 -1.5876923e-002 -6.4971636e-002
 -1.4922156e-002 -6.1790054e-002
 -1.5331118e-002 -6.0504120e-002
 -1.8293701e-002 -5.8897918e-002
 -2.3336480e-002 -5.5327251e-002
 -2.8066113e-002 -4.9798351e-002
 -2.9323076e-002 -4.3596066e-002
 -2.5197176e-002 -3.7971391e-002
 -1.6563345e-002 -3.3171843e-002
 -6.9485615e-003 -2.8599104e-002
 -6.2733648e-004 -2.3738259e-002
 -8.1086871e-005 -1.9192202e-002
 -4.4594501e-003 -1.6377582e-002
 -1.0208160e-002 -1.6378406e-002
 -1.3431243e-002 -1.8981969e-002
 -1.2362588e-002 -2.2786876e-002
 -8.2315174e-003 -2.6283589e-002
 -4.0182714e-003 -2.8940827e-002
 -2.1210117e-003 -3.1277710e-002
 -2.7168939e-003 -3.3874253e-002
 -3.9869086e-003 -3.6295617e-002
 -3.8727919e-003 -3.7038510e-002
 -1.9203313e-003 -3.4763631e-002
  3.1711298e-004 -2.9810200e-002
  5.6721224e-004 -2.4556512e-002
 -2.1898807e-003 -2.1997837e-002
 -6.6987601e-003 -2.3622758e-002
 -1.0232468e-002 -2.8268318e-002
 -1.0551545e-002 -3.2916318e-002
 -7.5635649e-003 -3.4972763e-002
 -3.4212844e-003 -3.4262458e-002
 -9.5690294e-004 -3.3004488e-002
 -1.7181283e-003 -3.3856169e-002
 -4.9869624e-003 -3.7578923e-002
 -8.5067797e-003 -4.2115181e-002
 -1.0197478e-002 -4.4168035e-002
 -9.4343629e-003 -4.1881262e-002
 -7.0691776e-003 -3.6459068e-002
 -4.4511611e-003 -3.1352345e-002
 -2.4019012e-003 -2.9629283e-002
 -1.0295299e-003 -3.1614609e-002
 -3.2658538e-004 -3.4769658e-002
 -7.0714743e-004 -3.5860826e-002
 -2.8208504e-003 -3.3686241e-002
 -6.6237032e-003 -2.9987711e-002
 -1.0641658e-002 -2.7823286e-002
 -1.2443737e-002 -2.8857510e-002
 -1.0288130e-002 -3.1928031e-002
 -4.7785211e-003 -3.4145834e-002
  9.4961914e-004 -3.3624161e-002
  3.0216589e-003 -3.1418101e-002
 -4.6796382e-004 -3.0773942e-002
 -7.8240435e-003 -3.4215318e-002
 -1.4570642e-002 -4.0801814e-002
 -1.6413541e-002 -4.6216953e-002
 -1.2271680e-002 -4.5895314e-002
 -5.1557540e-003 -3.8876148e-002
 -1.0318847e-004 -2.9144067e-002
 -6.1151159e-004 -2.3090375e-002
 -6.1757338e-003 -2.4809184e-002
 -1.2723483e-002 -3.2806195e-002
 -1.5641464e-002 -4.0853897e-002
 -1.3124421e-002 -4.2560371e-002
 -7.3677087e-003 -3.6168403e-002
 -2.7499862e-003 -2.5886717e-002
 -2.4609692e-003 -1.8656609e-002
 -6.1791564e-003 -1.8901657e-002
 -1.0552098e-002 -2.5369490e-002
 -1.1978687e-002 -3.2466997e-002
 -9.5242378e-003 -3.4925498e-002
 -5.6751683e-003 -3.1979314e-002
 -4.3839158e-003 -2.7687514e-002
 -7.8995522e-003 -2.7203416e-002
 -1.4895249e-002 -3.2176072e-002
 -2.1258189e-002 -3.9155723e-002
 -2.2945105e-002 -4.2358424e-002
 -1.8805447e-002 -3.8514042e-002
 -1.1325534e-002 -2.9753507e-002
 -4.8922549e-003 -2.2130294e-002
 -2.9146358e-003 -2.0925880e-002
 -5.8851985e-003 -2.6577504e-002
 -1.1491094e-002 -3.4482716e-002
 -1.6405087e-002 -3.8703652e-002
 -1.8263798e-002 -3.6376238e-002
 -1.6580387e-002 -2.9117157e-002
 -1.2371332e-002 -2.0563885e-002
 -7.2150792e-003 -1.2574906e-002
 -2.6180227e-003 -3.8279380e-003
  1.3806864e-004  7.7515983e-003
  8.6056022e-005  2.1048345e-002
 -2.9727237e-003  3.0402230e-002
 -7.8952823e-003  2.9030434e-002
 -1.2177460e-002  1.5100623e-002
 -1.2982643e-002 -4.7778516e-003
 -8.8388241e-003 -1.8504851e-002
 -7.6602746e-004 -1.6719835e-002
  8.1549316e-003 -3.1418005e-004
  1.4697233e-002  1.9088455e-002
  1.7529486e-002  2.6948467e-002
  1.7715433e-002  1.6433988e-002
  1.7232287e-002 -6.3747197e-003
  1.6727432e-002 -2.7302967e-002
  1.4568671e-002 -3.5491617e-002
  8.2367644e-003 -3.2212994e-002
 -2.8683248e-003 -2.9410895e-002
 -1.5710020e-002 -3.8527642e-002
 -2.4855339e-002 -5.8774870e-002
 -2.6315788e-002 -7.5692143e-002
 -2.1027735e-002 -7.3026752e-002
 -1.4681310e-002 -4.9326112e-002
 -1.3118614e-002 -2.4428585e-002
 -1.6226178e-002 -2.6755230e-002
 -1.5344524e-002 -6.7025867e-002
  2.3898138e-003 -1.1733947e-001
  4.4165043e-002 -1.1527037e-001
  1.0214857e-001  2.3926548e-003
  1.5197044e-001  2.5343917e-001
  1.6211232e-001  5.8151403e-001
  1.1035512e-001  8.6837857e-001
 -1.8118182e-003  9.8676480e-001
 -1.4579217e-001  8.6673435e-001
 -2.7662589e-001  5.3691760e-001
 -3.5280026e-001  1.1470938e-001
 -3.5457300e-001 -2.5056227e-001
 -2.9111391e-001 -4.4944168e-001
 -1.9346097e-001 -4.5884609e-001
 -9.8219487e-002 -3.3951942e-001
 -3.1354713e-002 -1.9070480e-001
 -1.5972410e-004 -9.2472173e-002
  4.2095664e-003 -7.0015449e-002
 -2.6447250e-003 -9.6444282e-002
 -7.9756227e-003 -1.2483507e-001
 -6.6381649e-003 -1.2398503e-001
 -1.1141603e-004 -9.4689568e-002
  7.4718389e-003 -6.0376157e-002
  1.2887859e-002 -4.4081306e-002
  1.5047827e-002 -5.0754162e-002
  1.4381754e-002 -6.6661568e-002
  1.1856949e-002 -7.3259268e-002
  8.6683876e-003 -6.2539823e-002
  6.4451547e-003 -4.1781534e-002
  7.0189316e-003 -2.5549142e-002
  1.1328243e-002 -2.2956478e-002
  1.8347854e-002 -3.0838251e-002
  2.5106422e-002 -3.7629821e-002
  2.8242165e-002 -3.3800273e-002
  2.6251718e-002 -1.9749362e-002
  2.0743588e-002 -4.8916008e-003
  1.5699455e-002  7.8286173e-004
  1.4975386e-002 -4.7617183e-003
  1.9775634e-002 -1.3988566e-002
  2.7866397e-002 -1.6141568e-002
  3.5090754e-002 -6.0821734e-003
  3.8114595e-002  1.1628116e-002
  3.6491195e-002  2.6543469e-002
  3.2723510e-002  3.0781347e-002
  3.0485440e-002  2.5249451e-002
  3.2349303e-002  1.8801648e-002
  3.8506881e-002  2.1208639e-002
  4.7150851e-002  3.5692277e-002
  5.5938428e-002  5.6862085e-002
  6.3469345e-002  7.5419768e-002
  6.9769719e-002  8.5578846e-002
  7.5839462e-002  8.9254382e-002
  8.2826324e-002  9.3929145e-002
  9.1351978e-002  1.0612532e-001
  1.0123600e-001  1.2584158e-001
  1.1150880e-001  1.4633585e-001
  1.2060868e-001  1.5933404e-001
  1.2683833e-001  1.6144635e-001
  1.2903051e-001  1.5670446e-001
  1.2722174e-001  1.5332777e-001
  1.2284335e-001  1.5723782e-001
  1.1804856e-001  1.6727567e-001
  1.1430531e-001  1.7554643e-001
  1.1114455e-001  1.7256384e-001
  1.0617257e-001  1.5339114e-001
  9.6509843e-002  1.2049210e-001
  8.0945663e-002  8.1682022e-002
  6.1263986e-002  4.5053558e-002
  4.1592957e-002  1.4664623e-002
  2.5982221e-002 -1.0351865e-002
  1.5858738e-002 -3.3279868e-002
  9.2116973e-003 -5.6282644e-002
  2.2381456e-003 -7.8490215e-002
 -7.6555442e-003 -9.6754804e-002
 -1.9662324e-002 -1.0806397e-001
 -2.9921207e-002 -1.1162254e-001
 -3.4250406e-002 -1.0918256e-001
 -3.1339363e-002 -1.0371324e-001
 -2.4019737e-002 -9.7673153e-002
 -1.7617480e-002 -9.2068052e-002
 -1.6449007e-002 -8.6689863e-002
 -2.1051148e-002 -8.1044519e-002
 -2.8028034e-002 -7.5148240e-002
 -3.2669994e-002 -6.9673345e-002
 -3.2319221e-002 -6.5455424e-002
 -2.8059548e-002 -6.2874397e-002
 -2.3589855e-002 -6.1454323e-002
 -2.2280637e-002 -5.9989248e-002
 -2.4730247e-002 -5.7157094e-002
 -2.8507101e-002 -5.2267556e-002
 -3.0235648e-002 -4.5844330e-002
 -2.8204918e-002 -3.9780884e-002
 -2.3526753e-002 -3.6337207e-002
 -1.9081438e-002 -3.6667566e-002
 -1.7223551e-002 -3.9766708e-002
 -1.8070665e-002 -4.2679719e-002
 -1.9676858e-002 -4.2209971e-002
 -1.9813811e-002 -3.7186288e-002
 -1.7792024e-002 -2.9630492e-002
 -1.4924857e-002 -2.3828317e-002
 -1.3294677e-002 -2.3517959e-002
 -1.3937221e-002 -2.9095129e-002
 -1.5975285e-002 -3.6954642e-002
 -1.7407195e-002 -4.1748346e-002
 -1.6791573e-002 -4.0076098e-002
 -1.4478028e-002 -3.3034091e-002
 -1.2356892e-002 -2.5601678e-002
 -1.2351729e-002 -2.3096467e-002
 -1.4884417e-002 -2.7295215e-002
 -1.8540205e-002 -3.5071064e-002
 -2.1166586e-002 -4.0763038e-002
 -2.1441613e-002 -4.0515470e-002
 -1.9702398e-002 -3.5294780e-002
 -1.7468219e-002 -3.0133898e-002
 -1.6142271e-002 -3.0148881e-002
 -1.6021851e-002 -3.6362256e-002
 -1.6315819e-002 -4.4572341e-002
 -1.6154506e-002 -4.8593347e-002
 -1.5509810e-002 -4.5085070e-002
 -1.5321474e-002 -3.6407696e-002
 -1.6641163e-002 -2.9176628e-002
 -1.9544283e-002 -2.9371472e-002
 -2.2809877e-002 -3.7762689e-002
 -2.4650458e-002 -4.9123153e-002
 -2.3982472e-002 -5.5870550e-002
 -2.1223834e-002 -5.3420458e-002
 -1.8021510e-002 -4.3301058e-002
 -1.6110831e-002 -3.1796874e-002
 -1.6201299e-002 -2.5325954e-002
 -1.7649694e-002 -2.6144994e-002
 -1.9069922e-002 -3.1513752e-002
 -1.9340246e-002 -3.6581526e-002
 -1.8240193e-002 -3.8361450e-002
 -1.6371196e-002 -3.7555935e-002
 -1.4611250e-002 -3.7020565e-002
 -1.3653471e-002 -3.8568815e-002
 -1.3870480e-002 -4.1045833e-002
 -1.5434208e-002 -4.1440968e-002
 -1.8347998e-002 -3.7989766e-002
 -2.2202159e-002 -3.2339658e-002
 -2.5963396e-002 -2.8649892e-002
 -2.8180300e-002 -3.0137588e-002
 -2.7640604e-002 -3.5939012e-002
 -2.4189046e-002 -4.1168659e-002
 -1.9028187e-002 -4.0452449e-002
 -1.4175873e-002 -3.2295260e-002
 -1.1388593e-002 -2.0749611e-002
 -1.1256196e-002 -1.2809224e-002
 -1.3104310e-002 -1.3377144e-002
 -1.5659217e-002 -2.1635498e-002
 -1.7874249e-002 -3.1679119e-002
 -1.9288150e-002 -3.6900947e-002
 -1.9785729e-002 -3.4730030e-002
 -1.9271432e-002 -2.8092249e-002
 -1.7725514e-002 -2.2699897e-002
 -1.5715647e-002 -2.2533271e-002
 -1.4693669e-002 -2.7122269e-002
 -1.6345136e-002 -3.2517832e-002
 -2.1139749e-002 -3.4698941e-002
 -2.7088362e-002 -3.2257222e-002
 -3.0070341e-002 -2.6214924e-002
 -2.6125870e-002 -1.7693653e-002
 -1.4538666e-002 -6.2569007e-003
  5.7190078e-004  8.9737205e-003
  1.1837382e-002  2.6331852e-002
  1.2922440e-002  3.9980162e-002
  2.9182979e-003  4.2365852e-002
 -1.2383031e-002  2.9889107e-002
 -2.3572147e-002  7.5553177e-003
 -2.3390914e-002 -1.2088671e-002
 -1.1352386e-002 -1.6406173e-002
  5.9895086e-003 -1.8385516e-003
  1.9402750e-002  2.2269957e-002
  2.2929934e-002  3.8991182e-002
  1.7178471e-002  3.5274951e-002
  7.7959031e-003  1.1313153e-002
  5.3725543e-004 -1.9504392e-002
 -3.0801450e-003 -4.0497656e-002
 -6.1343553e-003 -4.4119415e-002
 -1.2530062e-002 -3.7013651e-002
 -2.2467057e-002 -3.3329931e-002
 -3.1218485e-002 -4.1503729e-002
 -3.2708322e-002 -5.5845743e-002
 -2.5112049e-002 -6.1065374e-002
 -1.3507960e-002 -4.7290811e-002
 -6.5031473e-003 -2.3082484e-002
 -8.5833419e-003 -1.3208821e-002
 -1.4044139e-002 -3.8533594e-002
 -8.4029893e-003 -9.0739859e-002
  2.1803388e-002 -1.2250076e-001
  7.6419604e-002 -6.6698005e-002
  1.3533237e-001  1.2126841e-001
  1.6465741e-001  4.2292106e-001
  1.3386660e-001  7.4682009e-001
  3.4536889e-002  9.6245003e-001
 -1.1085914e-001  9.6377628e-001
 -2.5654910e-001  7.2745317e-001
 -3.5407642e-001  3.3070249e-001
 -3.7481853e-001 -8.3786634e-002
 -3.2187976e-001 -3.7716071e-001
 -2.2538174e-001 -4.7881308e-001
 -1.2504611e-001 -4.1067117e-001
 -5.0770417e-002 -2.6105554e-001
 -1.1877835e-002 -1.2796261e-001
  6.6171374e-004 -6.7435625e-002
  3.0383977e-003 -7.5524112e-002
  6.8117013e-003 -1.0845871e-001
  1.3783691e-002 -1.2164597e-001
  1.8953465e-002 -9.9645353e-002
  1.7515166e-002 -5.9623492e-002
  9.9155171e-003 -3.1317537e-002
  1.5924888e-003 -3.1774545e-002
 -1.4892613e-003 -5.3780350e-002
  2.4707631e-003 -7.4340244e-002
  9.9568896e-003 -7.4128043e-002
  1.5027345e-002 -5.1993883e-002
  1.3857179e-002 -2.4103249e-002
  7.4987714e-003 -9.8902951e-003
  9.7481443e-004 -1.6740275e-002
 -3.1550310e-004 -3.5078879e-002
  5.8454698e-003 -4.6723205e-002
  1.7312236e-002 -3.9197470e-002
  2.9223060e-002 -1.4825339e-002
  3.7044175e-002  1.1860456e-002
  3.8943193e-002  2.5610148e-002
  3.6180547e-002  2.1632878e-002
  3.1776499e-002  8.1802166e-003
  2.8626387e-002 -6.8959356e-004
  2.8248892e-002  4.0468550e-003
  3.0590255e-002  2.0180315e-002
  3.4589049e-002  3.6930832e-002
  3.8971480e-002  4.3788781e-002
  4.2891248e-002  3.8479241e-002
  4.6276393e-002  2.8281068e-002
  4.9876293e-002  2.4277231e-002
  5.4869393e-002  3.3290776e-002
  6.2120514e-002  5.3609302e-002
  7.1466379e-002  7.7111730e-002
  8.1498005e-002  9.5563330e-002
  9.0180513e-002  1.0605791e-001
  9.6133502e-002  1.1186532e-001
  9.9675093e-002  1.1878630e-001
  1.0276760e-001  1.3027676e-001
  1.0768041e-001  1.4518437e-001
  1.1517023e-001  1.5934488e-001
  1.2349538e-001  1.6917300e-001
  1.2918667e-001  1.7409619e-001
  1.2920860e-001  1.7599418e-001
  1.2309884e-001  1.7652048e-001
  1.1348542e-001  1.7480746e-001
  1.0439439e-001  1.6754533e-001
  9.8454272e-002  1.5137258e-001
  9.4927977e-002  1.2561700e-001
  9.0080588e-002  9.3203671e-002
  7.9764542e-002  5.9043613e-002
  6.2443597e-002  2.7241792e-002
  4.0645031e-002 -6.9850348e-004
  1.9727163e-002 -2.5518692e-002
  4.7545591e-003 -4.8271830e-002
 -2.4556944e-003 -6.8612060e-002
 -4.1404995e-003 -8.4671595e-002
 -4.7826072e-003 -9.4548971e-002
 -8.0927738e-003 -9.8103873e-002
 -1.4763784e-002 -9.7449228e-002
 -2.2487755e-002 -9.5711881e-002
 -2.7977130e-002 -9.5051782e-002
 -2.9442539e-002 -9.5477127e-002
 -2.7730873e-002 -9.5327921e-002
 -2.5461414e-002 -9.2903218e-002
 -2.4919191e-002 -8.7879118e-002
 -2.6344604e-002 -8.1437347e-002
 -2.7856098e-002 -7.5132346e-002
 -2.7024177e-002 -6.9566217e-002
 -2.2887490e-002 -6.4046875e-002
 -1.6949154e-002 -5.7547745e-002
 -1.2424942e-002 -5.0090145e-002
 -1.2115020e-002 -4.3203853e-002
 -1.6495756e-002 -3.9006392e-002
 -2.3241476e-002 -3.8462382e-002
 -2.8532625e-002 -4.0293543e-002
 -2.9287432e-002 -4.1551593e-002
 -2.4985325e-002 -3.9556580e-002
 -1.7973720e-002 -3.3918207e-002
 -1.2121164e-002 -2.7078747e-002
 -1.0557081e-002 -2.2675537e-002
 -1.3949792e-002 -2.3171677e-002
 -2.0169258e-002 -2.8130387e-002
 -2.5511861e-002 -3.4409729e-002
 -2.6734483e-002 -3.8194854e-002
 -2.2683126e-002 -3.7391308e-002
 -1.4710502e-002 -3.2732449e-002
 -5.7499094e-003 -2.6951996e-002
  1.2341677e-003 -2.2780611e-002
  4.5455153e-003 -2.1305920e-002
  4.1535882e-003 -2.1819180e-002
  1.1662665e-003 -2.3002539e-002
 -3.0180382e-003 -2.4263249e-002
 -7.2862500e-003 -2.6041765e-002
 -1.0879399e-002 -2.8913776e-002
 -1.3152180e-002 -3.2448256e-002
 -1.3484871e-002 -3.4980936e-002
 -1.1619360e-002 -3.4724955e-002
 -8.1843972e-003 -3.1459992e-002
 -4.9065172e-003 -2.7268709e-002
 -3.9502096e-003 -2.5410768e-002
 -6.6971904e-003 -2.8004487e-002
 -1.2611416e-002 -3.4248350e-002
 -1.9146837e-002 -4.0651132e-002
 -2.3008216e-002 -4.3373728e-002
 -2.2093933e-002 -4.1024965e-002
 -1.6905685e-002 -3.5733215e-002
 -1.0456484e-002 -3.1759222e-002
 -6.4607737e-003 -3.2278193e-002
 -7.0261928e-003 -3.6819576e-002
 -1.1349977e-002 -4.1510571e-002
 -1.6247620e-002 -4.1957162e-002
 -1.8278208e-002 -3.6643795e-002
 -1.6062130e-002 -2.8236015e-002
 -1.1239424e-002 -2.1742296e-002
 -7.3557834e-003 -2.0834071e-002
 -7.4379905e-003 -2.5162644e-002
 -1.1873227e-002 -3.0730618e-002
 -1.8029528e-002 -3.3062079e-002
 -2.1926803e-002 -3.0670520e-002
 -2.0811797e-002 -2.6055157e-002
 -1.4986996e-002 -2.3468306e-002
 -7.6952509e-003 -2.5268112e-002
 -3.1839913e-003 -2.9900793e-002
 -4.1247824e-003 -3.3159043e-002
 -1.0053469e-002 -3.1755000e-002
 -1.7692131e-002 -2.6265069e-002
 -2.2944184e-002 -2.0926842e-002
 -2.3233222e-002 -2.0233898e-002
 -1.8785001e-002 -2.5083069e-002
 -1.2292136e-002 -3.1718309e-002
 -7.2122528e-003 -3.4534003e-002
 -5.8031182e-003 -3.0616610e-002
 -8.0778357e-003 -2.2385952e-002
 -1.2125803e-002 -1.5989969e-002
 -1.5433047e-002 -1.6519510e-002
 -1.6338067e-002 -2.3774984e-002
 -1.4814384e-002 -3.2119783e-002
 -1.2248003e-002 -3.4799110e-002
 -1.0486257e-002 -2.9425553e-002
 -1.0822568e-002 -2.0212588e-002
 -1.3394549e-002 -1.4918378e-002
 -1.7310183e-002 -1.8818731e-002
 -2.1181081e-002 -3.0311954e-002
 -2.3666376e-002 -4.1782029e-002
 -2.3746659e-002 -4.5170555e-002
 -2.0825692e-002 -3.7894355e-002
 -1.4891452e-002 -2.4433005e-002
 -6.7928702e-003 -1.2291013e-002
  1.5373204e-003 -5.7641515e-003
  7.3465351e-003 -2.7673478e-003
  8.1280705e-003  2.5729434e-003
  3.0924024e-003  1.3748899e-002
 -5.7790433e-003  2.7523407e-002
 -1.4104380e-002  3.5570613e-002
 -1.7069980e-002  3.1294154e-002
 -1.2148007e-002  1.6264462e-002
 -8.2462947e-004  4.9161792e-004
  1.1961135e-002 -4.5458510e-003
  2.0615352e-002  4.9301641e-003
  2.2303303e-002  2.1150218e-002
  1.8684742e-002  3.0067253e-002
  1.4519538e-002  2.2129931e-002
  1.3989438e-002  1.4480704e-004
  1.7267382e-002 -2.2512355e-002
  1.9990453e-002 -3.2537398e-002
  1.6327919e-002 -2.7819927e-002
  3.6760170e-003 -1.9498071e-002
 -1.4498579e-002 -2.2388403e-002
 -3.0152188e-002 -4.1175812e-002
 -3.5877182e-002 -6.4390986e-002
 -3.0220707e-002 -7.2949145e-002
 -1.8846926e-002 -5.7859439e-002
 -1.0081797e-002 -3.2361483e-002
 -7.5275622e-003 -2.5401051e-002
 -5.3462914e-003 -5.6861052e-002
  9.3203839e-003 -1.1107270e-001
  4.6899602e-002 -1.3110079e-001
  1.0450656e-001 -4.5360388e-002
  1.6141192e-001  1.8428170e-001
  1.8563685e-001  5.2246262e-001
  1.4970061e-001  8.5818759e-001
  4.7221284e-002  1.0498613e+000
 -9.9651112e-002  9.9658230e-001
 -2.4721013e-001  6.9546855e-001
 -3.4879563e-001  2.4981810e-001
 -3.7532094e-001 -1.7917601e-001
 -3.2696789e-001 -4.5075807e-001
 -2.3037189e-001 -5.0880187e-001
 -1.2389395e-001 -3.9713520e-001
 -3.9714598e-002 -2.2154505e-001
  7.7745645e-003 -8.5270424e-002
  2.2669467e-002 -3.7551101e-002
  1.9327056e-002 -6.2393995e-002
  1.1761621e-002 -1.0682390e-001
  7.0029282e-003 -1.2411403e-001
  4.9103863e-003 -1.0231209e-001
  2.4175793e-003 -6.3003100e-002
 -2.0021746e-003 -3.7415202e-002
 -6.7770946e-003 -4.0824394e-002
 -8.8456381e-003 -6.3601132e-002
 -6.3105395e-003 -8.2372783e-002
  1.2258203e-004 -7.9754832e-002
  7.8366610e-003 -5.6676819e-002
  1.4180112e-002 -2.9121154e-002
  1.7895999e-002 -1.3963745e-002
  1.9168817e-002 -1.6162073e-002
  1.8793446e-002 -2.6823420e-002
  1.7431007e-002 -3.2200558e-002
  1.5621945e-002 -2.5191563e-002
  1.4267974e-002 -1.0066507e-002
  1.4743033e-002  2.4895884e-003
  1.8210654e-002  4.9669892e-003
  2.4569563e-002 -1.0016326e-003
  3.1968134e-002 -6.7975582e-003
  3.7552188e-002 -4.5966831e-003
  3.9134016e-002  6.1723733e-003
  3.6625711e-002  1.8911757e-002
  3.2208622e-002  2.5998002e-002
  2.9048959e-002  2.5494197e-002
  2.9502298e-002  2.2813271e-002
  3.4014651e-002  2.6141846e-002
  4.1380688e-002  3.9625300e-002
  4.9922732e-002  6.0018140e-002
  5.8612291e-002  7.9409739e-002
  6.7342262e-002  9.1575167e-002
  7.6355270e-002  9.6636147e-002
  8.5517839e-002  1.0036749e-001
  9.4164769e-002  1.0907098e-001
  1.0156497e-001  1.2437568e-001
  1.0749938e-001  1.4224607e-001
  1.1230580e-001  1.5667572e-001
  1.1636320e-001  1.6476215e-001
  1.1955143e-001  1.6877304e-001
  1.2126648e-001  1.7352360e-001
  1.2105649e-001  1.8141857e-001
  1.1928572e-001  1.8946905e-001
  1.1701244e-001  1.9084857e-001
  1.1494985e-001  1.7973799e-001
  1.1227364e-001  1.5556826e-001
  1.0645963e-001  1.2331921e-001
  9.4673399e-002  8.9805868e-002
  7.6037727e-002  5.9095610e-002
  5.3085076e-002  3.0733341e-002
  3.1131024e-002  1.9793702e-003
  1.5582747e-002 -2.8184045e-002
  8.7743037e-003 -5.6903767e-002
  8.4962751e-003 -7.9078921e-002
  9.3438400e-003 -9.1376880e-002
  6.0768633e-003 -9.5179433e-002
 -3.1651433e-003 -9.5844222e-002
 -1.5929399e-002 -9.8736007e-002
 -2.7327546e-002 -1.0514977e-001
 -3.3299544e-002 -1.1143831e-001
 -3.2994525e-002 -1.1208719e-001
 -2.8815040e-002 -1.0424729e-001
 -2.4371029e-002 -9.0134025e-002
 -2.2015262e-002 -7.5508644e-002
 -2.1732449e-002 -6.5509238e-002
 -2.1928928e-002 -6.1233486e-002
 -2.1131728e-002 -5.9616728e-002
 -1.9162560e-002 -5.6508148e-002
 -1.6931845e-002 -5.0237853e-002
 -1.5293944e-002 -4.2761981e-002
 -1.4149089e-002 -3.7673161e-002
 -1.2682497e-002 -3.6931586e-002
 -1.0515868e-002 -3.9157393e-002
 -8.6089568e-003 -4.0840718e-002
 -8.8692439e-003 -3.9300770e-002
 -1.2552310e-002 -3.4719387e-002
 -1.8705631e-002 -2.9835896e-002
 -2.4014155e-002 -2.7262331e-002
 -2.4618182e-002 -2.7099942e-002
 -1.8746986e-002 -2.6886483e-002
 -8.3062142e-003 -2.4028079e-002
  1.8884350e-003 -1.8541137e-002
  6.9226954e-003 -1.3627064e-002
  4.7963142e-003 -1.3406698e-002
 -2.3456736e-003 -1.9512796e-002
 -9.6650523e-003 -2.9336522e-002
 -1.2725272e-002 -3.7464985e-002
 -1.0209452e-002 -3.9330921e-002
 -4.5247337e-003 -3.4367906e-002
  9.7058539e-006 -2.6320248e-002
  4.2704725e-005 -2.0515451e-002
 -4.8126079e-003 -2.0316917e-002
 -1.2014804e-002 -2.5326917e-002
 -1.7918134e-002 -3.2350902e-002
 -2.0022637e-002 -3.7991299e-002
 -1.8227139e-002 -4.0693803e-002
 -1.4481139e-002 -4.0834930e-002
 -1.1362143e-002 -3.9335632e-002
 -1.0598568e-002 -3.6471086e-002
 -1.2353345e-002 -3.2051220e-002
 -1.5527192e-002 -2.6612459e-002
 -1.8629691e-002 -2.2321333e-002
 -2.0504670e-002 -2.1828610e-002
 -2.0687215e-002 -2.6057240e-002
 -1.9321374e-002 -3.2728231e-002
 -1.6827148e-002 -3.7252293e-002
 -1.3630538e-002 -3.5797245e-002
 -1.0081438e-002 -2.8305378e-002
 -6.5795040e-003 -1.9010260e-002
 -3.7703363e-003 -1.3725320e-002
 -2.5878033e-003 -1.5727169e-002
 -4.0283382e-003 -2.3348742e-002
 -8.5753554e-003 -3.1175894e-002
 -1.5595799e-002 -3.4001800e-002
 -2.3146835e-002 -3.0488304e-002
 -2.8567953e-002 -2.3768966e-002
 -2.9769529e-002 -1.8704807e-002
 -2.6551440e-002 -1.8052528e-002
 -2.0973999e-002 -2.0626719e-002
 -1.6370655e-002 -2.2820382e-002
 -1.5396794e-002 -2.2025793e-002
 -1.8291660e-002 -1.8942301e-002
 -2.2620375e-002 -1.6794400e-002
 -2.4824160e-002 -1.8178104e-002
 -2.2714401e-002 -2.2400151e-002
 -1.7105368e-002 -2.5698260e-002
 -1.1373675e-002 -2.4320315e-002
 -9.1486906e-003 -1.7946848e-002
 -1.1744598e-002 -1.0508217e-002
 -1.7182215e-002 -7.4687722e-003
 -2.1581905e-002 -1.1627104e-002
 -2.1952430e-002 -2.0789027e-002
 -1.8293500e-002 -2.9235905e-002
 -1.3478775e-002 -3.1880223e-002
 -1.0939907e-002 -2.7784036e-002
 -1.1974858e-002 -2.0372536e-002
 -1.4768444e-002 -1.4398818e-002
 -1.5917334e-002 -1.2310775e-002
 -1.3272835e-002 -1.2993718e-002
 -7.8434783e-003 -1.3650262e-002
 -3.1996741e-003 -1.2865921e-002
 -2.7653327e-003 -1.1872483e-002
 -7.0920286e-003 -1.2945589e-002
 -1.3284511e-002 -1.6505268e-002
 -1.7152239e-002 -1.9984372e-002
 -1.6421547e-002 -1.9829444e-002
 -1.2484840e-002 -1.5042901e-002
 -9.2702302e-003 -8.7863268e-003
 -1.0093422e-002 -6.0434543e-003
 -1.4934101e-002 -8.7413102e-003
 -2.0302226e-002 -1.2622166e-002
 -2.1858390e-002 -9.3736359e-003
 -1.7752629e-002  6.6474440e-003
 -1.0046410e-002  3.2214308e-002
 -3.1125820e-003  5.5145938e-002
 -2.8077451e-004  6.1761839e-002
 -1.4450753e-003  4.7041570e-002
 -3.4842851e-003  1.9670251e-002
 -3.0397563e-003 -2.7478455e-003
  6.6527476e-004 -5.7549487e-003
  5.3558117e-003  1.1274042e-002
  7.8683154e-003  3.4183911e-002
  7.0439638e-003  4.4155739e-002
  4.6788058e-003  3.1550910e-002
  3.5797622e-003  2.8390428e-003
  4.4381252e-003 -2.4927584e-002
  4.4615594e-003 -3.7826366e-002
 -5.6071961e-004 -3.5832369e-002
 -1.2120026e-002 -3.1592522e-002
 -2.6278482e-002 -3.7923974e-002
 -3.5356704e-002 -5.4718309e-002
 -3.3489771e-002 -6.7453146e-002
 -2.1936493e-002 -6.0367160e-002
 -9.3002748e-003 -3.4126012e-002
 -5.2418361e-003 -1.1575367e-002
 -1.1576783e-002 -2.2364146e-002
 -1.7747564e-002 -7.4004273e-002
 -5.7338771e-003 -1.3100467e-001
  3.6947550e-002 -1.2280635e-001
  1.0417306e-001  1.6653102e-002
  1.6783217e-001  2.9868283e-001
  1.8884692e-001  6.5251570e-001
  1.3807034e-001  9.4475546e-001
  1.5237452e-002  1.0413738e+000
 -1.4614656e-001  8.7929103e-001
 -2.9217960e-001  5.0510526e-001
 -3.7364821e-001  5.5958953e-002
 -3.6893651e-001 -3.0810581e-001
 -2.9216020e-001 -4.8168842e-001
 -1.8288397e-001 -4.5759660e-001
 -8.4414135e-002 -3.1449381e-001
 -2.3629798e-002 -1.6121602e-001
 -2.9359773e-003 -7.4744210e-002
 -6.5322134e-003 -6.8320597e-002
 -1.4559562e-002 -1.0308590e-001
 -1.5258713e-002 -1.2787085e-001
 -8.5090702e-003 -1.1660656e-001
 -9.8944921e-004 -7.9703216e-002
  1.5871300e-003 -4.7155232e-002
 -1.0102033e-003 -4.0875944e-002
 -4.6267510e-003 -5.8379951e-002
 -5.1744484e-003 -7.8065442e-002
 -2.0884076e-003 -7.8835909e-002
  1.9093835e-003 -5.7007476e-002
  3.8778877e-003 -2.7734196e-002
  3.5143217e-003 -1.1408194e-002
  3.2661187e-003 -1.7139987e-002
  5.7669324e-003 -3.6552678e-002
  1.1023684e-002 -5.1796077e-002
  1.6050104e-002 -5.0184052e-002
  1.7341980e-002 -3.3343633e-002
  1.4075427e-002 -1.4245769e-002
  9.1976983e-003 -5.5711334e-003
  7.4136190e-003 -9.3800795e-003
  1.1569895e-002 -1.6328672e-002
  2.0285466e-002 -1.4433622e-002
  2.8855765e-002  3.9292466e-004
  3.2805250e-002  2.0894012e-002
  3.1321030e-002  3.4696094e-002
  2.7850939e-002  3.4646798e-002
  2.7354388e-002  2.4659837e-002
  3.2413375e-002  1.6456192e-002
  4.1289292e-002  2.0141584e-002
  4.9449697e-002  3.6400229e-002
  5.3353997e-002  5.6558162e-002
  5.3543875e-002  7.0227638e-002
  5.4472834e-002  7.3999684e-002
  6.1138749e-002  7.4021467e-002
  7.4954145e-002  8.0426697e-002
  9.2125982e-002  9.8497693e-002
  1.0591228e-001  1.2392745e-001
  1.1117671e-001  1.4603629e-001
  1.0796497e-001  1.5628312e-001
  1.0156676e-001  1.5510215e-001
  9.8915878e-002  1.5140861e-001
  1.0386386e-001  1.5502065e-001
  1.1456804e-001  1.6808324e-001
  1.2468845e-001  1.8238782e-001
  1.2746293e-001  1.8486263e-001
  1.1973642e-001  1.6697531e-001
  1.0340495e-001  1.3089318e-001
  8.3660624e-002  8.7840749e-002
  6.5598382e-002  5.0211671e-002
  5.1566755e-002  2.3584289e-002
  4.0805753e-002  4.5611641e-003
  3.1097124e-002 -1.4500302e-002
  2.0896932e-002 -3.8169827e-002
  1.0301303e-002 -6.4057026e-002
  4.6429484e-004 -8.5176916e-002
 -7.6505876e-003 -9.6140947e-002
 -1.4022520e-002 -9.7781381e-002
 -1.9245889e-002 -9.6339921e-002
 -2.3678829e-002 -9.8145463e-002
 -2.6919539e-002 -1.0428959e-001
 -2.8190270e-002 -1.0980862e-001
 -2.7309552e-002 -1.0810427e-001
 -2.5311313e-002 -9.6922915e-002
 -2.4025759e-002 -8.0840881e-002
 -2.4850052e-002 -6.8190671e-002
 -2.7621313e-002 -6.4830180e-002
 -3.0539885e-002 -6.9626565e-002
 -3.1453560e-002 -7.5580072e-002
 -2.9478187e-002 -7.5287981e-002
 -2.5865244e-002 -6.6537273e-002
 -2.3301724e-002 -5.3708339e-002
 -2.3974853e-002 -4.3947814e-002
 -2.7751076e-002 -4.1378243e-002
 -3.1872572e-002 -4.4007019e-002
 -3.2539152e-002 -4.5718880e-002
 -2.7473664e-002 -4.1553646e-002
 -1.7795591e-002 -3.1925574e-002
 -7.8210175e-003 -2.2391849e-002
 -2.6564421e-003 -1.9225796e-002
 -5.0288476e-003 -2.4392951e-002
 -1.3293257e-002 -3.3906884e-002
 -2.2049967e-002 -4.0794190e-002
 -2.5191751e-002 -4.0278561e-002
 -1.9644059e-002 -3.3129262e-002
 -7.5098775e-003 -2.4726495e-002
  4.8551624e-003 -2.0788428e-002
  1.0454349e-002 -2.3277925e-002
  5.8687458e-003 -2.9477289e-002
 -6.4628642e-003 -3.4587382e-002
 -1.9472970e-002 -3.5545468e-002
 -2.5555980e-002 -3.2951790e-002
 -2.1198297e-002 -2.9889247e-002
 -9.2374843e-003 -2.9014147e-002
  2.7031113e-003 -3.0547521e-002
  6.7475764e-003 -3.2696653e-002
 -4.2502108e-004 -3.3811068e-002
 -1.5473403e-002 -3.4115603e-002
 -3.0275787e-002 -3.5329487e-002
 -3.6767789e-002 -3.8693389e-002
 -3.1692430e-002 -4.3307152e-002
 -1.8465126e-002 -4.6221774e-002
 -5.0344052e-003 -4.4730423e-002
  8.7711700e-004 -3.8820834e-002
 -3.7425187e-003 -3.1643391e-002
 -1.5658887e-002 -2.7403695e-002
 -2.7548425e-002 -2.8223677e-002
 -3.2373567e-002 -3.2471862e-002
 -2.7349754e-002 -3.5989166e-002
 -1.5219525e-002 -3.5287908e-002
 -2.3973996e-003 -3.0272569e-002
  4.6545588e-003 -2.4403093e-002
  2.7008254e-003 -2.2198467e-002
 -7.0040994e-003 -2.5970411e-002
 -1.9827167e-002 -3.4259641e-002
 -3.0313730e-002 -4.2985253e-002
 -3.4689883e-002 -4.8220442e-002
 -3.2177066e-002 -4.8437170e-002
 -2.4804476e-002 -4.4784831e-002
 -1.6045015e-002 -3.9593245e-002
 -9.1349307e-003 -3.4636839e-002
 -5.8424843e-003 -3.0498956e-002
 -6.0916892e-003 -2.7177103e-002
 -8.4843053e-003 -2.4933405e-002
 -1.1329563e-002 -2.4366733e-002
 -1.3564081e-002 -2.5641857e-002
 -1.5115027e-002 -2.7875622e-002
 -1.6504197e-002 -2.9530919e-002
 -1.8080869e-002 -2.9678780e-002
 -1.9511951e-002 -2.8970669e-002
 -1.9957064e-002 -2.9168221e-002
 -1.8917232e-002 -3.1474979e-002
 -1.6942555e-002 -3.5014605e-002
 -1.5541312e-002 -3.7032711e-002
 -1.6037693e-002 -3.4981734e-002
 -1.8245989e-002 -2.8947036e-002
 -2.0058634e-002 -2.2202179e-002
 -1.8647178e-002 -1.9076457e-002
 -1.2760606e-002 -2.1605542e-002
 -4.4586323e-003 -2.7724589e-002
  1.3415081e-003 -3.2666593e-002
 -2.5664786e-004 -3.2647594e-002
 -1.0522286e-002 -2.7854857e-002
 -2.5348227e-002 -2.2085538e-002
 -3.7011571e-002 -1.9108950e-002
 -3.8736184e-002 -1.8758117e-002
 -2.9236931e-002 -1.6433202e-002
 -1.3954667e-002 -6.9928463e-003
 -1.7873138e-003  9.8726230e-003
  7.3029461e-004  2.7474196e-002
 -6.1520401e-003  3.5779671e-002
 -1.5513368e-002  2.8847316e-002
 -1.8559553e-002  1.0349603e-002
 -1.0795231e-002 -7.6858734e-003
  4.7854723e-003 -1.2890462e-002
  1.9826037e-002 -1.7681529e-003
  2.6514234e-002  1.7102077e-002
  2.2933557e-002  2.8907720e-002
  1.3947521e-002  2.3516676e-002
  6.9690025e-003  3.1061490e-003
  5.9768116e-003 -1.9664754e-002
  8.4648362e-003 -3.1871314e-002
  7.7963932e-003 -3.0849889e-002
 -7.9410799e-004 -2.6186409e-002
 -1.5377000e-002 -3.0907915e-002
 -2.7837001e-002 -4.8811407e-002
 -2.9798576e-002 -6.9030440e-002
 -1.9569553e-002 -7.3980160e-002
 -4.3096981e-003 -5.5683191e-002
  5.1096870e-003 -2.6894699e-002
  3.3707938e-003 -1.5225536e-002
 -2.8896130e-003 -4.0495657e-002
  2.4749686e-003 -9.0265591e-002
  3.3844696e-002 -1.1381097e-001
  9.0490654e-002 -4.5275304e-002
  1.5072641e-001  1.5327092e-001
  1.7928699e-001  4.5486236e-001
  1.4550542e-001  7.6372214e-001
  4.2196854e-002  9.5325202e-001
 -1.0628522e-001  9.2859414e-001
 -2.5263171e-001  6.7882506e-001
 -3.4789450e-001  2.8739866e-001
 -3.6404451e-001 -1.0688004e-001
 -3.0560262e-001 -3.7688208e-001
 -2.0459868e-001 -4.6452937e-001
 -1.0270244e-001 -3.9770234e-001
 -3.1196324e-002 -2.6120238e-001
  5.5489115e-004 -1.4316929e-001
  3.4998227e-003 -9.0206613e-002
 -2.5750136e-003 -9.5047694e-002
 -2.1782685e-003 -1.1776938e-001
  8.6185738e-003 -1.2112083e-001
  2.3511384e-002 -9.5085363e-002
  3.3063606e-002 -5.7150260e-002
  3.1910076e-002 -3.3151013e-002
  2.1690571e-002 -3.5758129e-002
  8.9501970e-003 -5.6349080e-002
  5.1013418e-004 -7.3987399e-002
 -2.8347480e-004 -7.2463118e-002
  5.5421294e-003 -5.1774779e-002
  1.4276863e-002 -2.6233675e-002
  2.2082800e-002 -1.2233907e-002
  2.6677874e-002 -1.5923729e-002
  2.7635009e-002 -2.9890964e-002
  2.5833317e-002 -4.0194294e-002
  2.2785139e-002 -3.7291799e-002
  2.0227003e-002 -2.2343388e-002
  1.9722579e-002 -4.8532187e-003
  2.2139742e-002  5.5021801e-003
  2.7151730e-002  6.0262398e-003
  3.3156434e-002  1.8677771e-003
  3.8001972e-002  8.5739642e-004
  4.0200227e-002  7.0420650e-003
  3.9876689e-002  1.8118156e-002
  3.8733113e-002  2.8210726e-002
  3.8940047e-002  3.3139557e-002
  4.1778378e-002  3.3724153e-002
  4.6921054e-002  3.4660939e-002
  5.2917859e-002  4.0406420e-002
  5.8487740e-002  5.1677604e-002
  6.3637153e-002  6.5371702e-002
  6.9714672e-002  7.7602391e-002
  7.8364224e-002  8.7023830e-002
  9.0083840e-002  9.5568448e-002
  1.0348103e-001  1.0618200e-001
  1.1584109e-001  1.1976239e-001
  1.2465915e-001  1.3404607e-001
  1.2901931e-001  1.4542013e-001
  1.2997024e-001  1.5208177e-001
  1.2962607e-001  1.5570316e-001
  1.2961337e-001  1.5996913e-001
  1.2995960e-001  1.6704907e-001
  1.2915424e-001  1.7488493e-001
  1.2524481e-001  1.7766712e-001
  1.1716759e-001  1.6935298e-001
  1.0541419e-001  1.4772178e-001
  9.1688892e-002  1.1599475e-001
  7.7855588e-002  8.0860221e-002
  6.4972749e-002  4.8408935e-002
  5.3060341e-002  2.1009595e-002
  4.1651598e-002 -2.7592332e-003
  3.0635877e-002 -2.5399714e-002
  2.0657440e-002 -4.7498587e-002
  1.2768036e-002 -6.6852059e-002
  7.5569052e-003 -8.0352381e-002
  4.4392209e-003 -8.6897127e-002
  1.6859041e-003 -8.8809715e-002
 -2.6928512e-003 -9.0440413e-002
 -9.7302094e-003 -9.4934728e-002
 -1.8680232e-002 -1.0168967e-001
 -2.7209670e-002 -1.0662506e-001
 -3.2549061e-002 -1.0526059e-001
 -3.3009203e-002 -9.6311755e-002
 -2.8936501e-002 -8.3068582e-002
 -2.2608683e-002 -7.1531761e-002
 -1.7084278e-002 -6.6492010e-002
 -1.4640204e-002 -6.8323520e-002
 -1.5682732e-002 -7.2820848e-002
 -1.8693046e-002 -7.4096843e-002
 -2.1194307e-002 -6.8462025e-002
 -2.1089177e-002 -5.6844154e-002
 -1.7667222e-002 -4.3840824e-002
 -1.1867404e-002 -3.4518857e-002
 -5.6969073e-003 -3.1320473e-002
 -1.2089231e-003 -3.3056828e-002
  4.7668535e-004 -3.6401518e-002
 -4.1182637e-004 -3.8448415e-002
 -2.5925724e-003 -3.8390340e-002
 -4.5214621e-003 -3.7296294e-002
 -5.2304368e-003 -3.6489967e-002
 -4.7990117e-003 -3.6190242e-002
 -4.1997477e-003 -3.5517652e-002
 -4.5964006e-003 -3.3655146e-002
 -6.4739950e-003 -3.1012904e-002
 -9.1476077e-003 -2.9201689e-002
 -1.1039378e-002 -2.9745813e-002
 -1.0594338e-002 -3.2599764e-002
 -7.3964623e-003 -3.5835969e-002
 -2.6813093e-003 -3.6944168e-002
  1.1424467e-003 -3.4835244e-002
  1.8350981e-003 -3.0916112e-002
 -1.2810338e-003 -2.8242719e-002
 -6.7716786e-003 -2.9278509e-002
 -1.1889886e-002 -3.3975756e-002
 -1.4270491e-002 -3.9713728e-002
 -1.3410658e-002 -4.3198552e-002
 -1.1023891e-002 -4.2968349e-002
 -9.8710980e-003 -4.0437350e-002
 -1.1768838e-002 -3.8629189e-002
 -1.6140500e-002 -3.9489109e-002
 -2.0174595e-002 -4.1948626e-002
 -2.0651571e-002 -4.2536322e-002
 -1.6209668e-002 -3.8161366e-002
 -8.5134154e-003 -2.8985653e-002
 -1.5596937e-003 -1.9229179e-002
  6.4355850e-004 -1.4668012e-002
 -3.5283444e-003 -1.8580628e-002
 -1.2295156e-002 -2.9134931e-002
 -2.1437778e-002 -4.0260529e-002
 -2.6659718e-002 -4.5559253e-002
 -2.5846481e-002 -4.2562342e-002
 -1.9958497e-002 -3.4183002e-002
 -1.2226308e-002 -2.6367481e-002
 -6.2851596e-003 -2.3745063e-002
 -4.4451442e-003 -2.6561972e-002
 -6.8498716e-003 -3.1072955e-002
 -1.1815053e-002 -3.2934848e-002
 -1.6869178e-002 -3.0791227e-002
 -1.9875774e-002 -2.7146978e-002
 -1.9825559e-002 -2.5866463e-002
 -1.7144247e-002 -2.8511958e-002
 -1.3449681e-002 -3.2675433e-002
 -1.0847568e-002 -3.3838553e-002
 -1.0866810e-002 -2.9327744e-002
 -1.3559704e-002 -2.1068185e-002
 -1.7326921e-002 -1.4697052e-002
 -1.9729807e-002 -1.5380350e-002
 -1.9046476e-002 -2.3570087e-002
 -1.5560552e-002 -3.4143589e-002
 -1.1660680e-002 -3.9882462e-002
 -1.0427738e-002 -3.6751705e-002
 -1.3476947e-002 -2.6872352e-002
 -1.9588507e-002 -1.6895449e-002
 -2.5293565e-002 -1.3043136e-002
 -2.7097649e-002 -1.6649775e-002
 -2.3945203e-002 -2.3671813e-002
 -1.8092971e-002 -2.8378812e-002
 -1.3592649e-002 -2.7991367e-002
 -1.3346906e-002 -2.4295159e-002
 -1.6899012e-002 -2.0932247e-002
 -2.0680063e-002 -1.8983868e-002
 -2.0601201e-002 -1.5096311e-002
 -1.5186639e-002 -4.3472865e-003
 -6.8087672e-003  1.4221643e-002
 -9.4971249e-005  3.4363217e-002
  1.3655794e-003  4.5312753e-002
 -2.4330029e-003  3.9360205e-002
 -8.0585598e-003  1.8718377e-002
 -1.1228801e-002 -4.2512200e-003
 -9.8517059e-003 -1.4790721e-002
 -5.1044039e-003 -6.3004190e-003
  1.8308675e-004  1.4277467e-002
  4.2367881e-003  3.0930359e-002
  7.6456379e-003  3.0114931e-002
  1.2050375e-002  1.0767679e-002
  1.7340894e-002 -1.5127723e-002
  2.0116274e-002 -3.2228198e-002
  1.5391089e-002 -3.4239892e-002
  8.2989802e-004 -2.8772768e-002
 -1.9830629e-002 -3.0120275e-002
 -3.7588352e-002 -4.5532211e-002
 -4.3582749e-002 -6.6798554e-002
 -3.5601577e-002 -7.5706800e-002
 -2.0520286e-002 -6.0721158e-002
 -9.7713615e-003 -3.1450845e-002
 -1.0271884e-002 -1.6569447e-002
 -1.7189736e-002 -4.1932282e-002
 -1.4956758e-002 -1.0226515e-001
  1.2349994e-002 -1.4874451e-001
  6.7130409e-002 -1.0778002e-001
  1.3061027e-001  7.4139037e-002
  1.6829523e-001  3.8535160e-001
  1.4731620e-001  7.3490279e-001
  5.6228024e-002  9.8499726e-001
 -8.4954787e-002  1.0171546e+000
 -2.3149153e-001  7.9597540e-001
 -3.3448363e-001  3.9268980e-001
 -3.6384475e-001 -4.7043743e-002
 -3.2080954e-001 -3.7387178e-001
 -2.3361883e-001 -5.0419087e-001
 -1.4024345e-001 -4.5034086e-001
 -6.9162078e-002 -2.9832179e-001
 -2.9115679e-002 -1.5115722e-001
 -1.1802009e-002 -7.3870464e-002
 -3.2152148e-003 -7.0723951e-002
  5.3244665e-003 -1.0178800e-001
  1.3402793e-002 -1.2103795e-001
  1.5768910e-002 -1.0805956e-001
  9.5349302e-003 -7.4693701e-002
 -1.9084205e-003 -4.7784670e-002
 -1.0953663e-002 -4.4950194e-002
 -1.1615899e-002 -6.2091480e-002
 -4.0036569e-003 -7.9675986e-002
  6.0038873e-003 -8.0050673e-002
  1.1455588e-002 -6.1008126e-002
  9.5114523e-003 -3.5717447e-002
  3.0743504e-003 -2.0771933e-002
 -2.0320583e-003 -2.2938472e-002
 -1.8278679e-003 -3.5010640e-002
  3.0057697e-003 -4.2987584e-002
  8.2276088e-003 -3.7838509e-002
  9.8888529e-003 -2.2184931e-002
  7.6140912e-003 -7.0735989e-003
  4.7228825e-003 -2.2818688e-003
  5.2624432e-003 -8.3979702e-003
  1.0561597e-002 -1.6826114e-002
  1.8147188e-002 -1.7191135e-002
  2.3867990e-002 -5.6826637e-003
  2.5370609e-002  1.2330637e-002
  2.4040156e-002  2.7135219e-002
  2.3826768e-002  3.2648077e-002
  2.7992998e-002  3.0973942e-002
  3.6399768e-002  3.0091292e-002
  4.5635766e-002  3.6965623e-002
  5.1811439e-002  5.1890113e-002
  5.3830984e-002  6.8627988e-002
  5.4457779e-002  7.9963490e-002
  5.8288710e-002  8.3935257e-002
  6.8202390e-002  8.5613787e-002
  8.3005119e-002  9.3018068e-002
  9.8092305e-002  1.1057507e-001
  1.0851221e-001  1.3530738e-001
  1.1215106e-001  1.5878121e-001
  1.1070068e-001  1.7317152e-001
  1.0788740e-001  1.7662419e-001
  1.0652269e-001  1.7382533e-001
  1.0671058e-001  1.7157010e-001
  1.0643798e-001  1.7301469e-001
  1.0367898e-001  1.7504835e-001
  9.8091294e-002  1.7064262e-001
  9.0932591e-002  1.5416922e-001
  8.3423077e-002  1.2550176e-001
  7.5200039e-002  8.9955222e-002
  6.4462279e-002  5.4478967e-002
  4.9850912e-002  2.3404428e-002
  3.2501899e-002 -3.0894410e-003
  1.6232624e-002 -2.7125097e-002
  5.3684492e-003 -4.9924212e-002
  1.6134082e-003 -7.0170302e-002
  2.4274021e-003 -8.5178955e-002
  2.3862641e-003 -9.3627361e-002
 -3.1554095e-003 -9.7204417e-002
 -1.4679014e-002 -9.9551707e-002
 -2.7942084e-002 -1.0335636e-001
 -3.6858587e-002 -1.0808791e-001
 -3.7834393e-002 -1.1048189e-001
 -3.2401827e-002 -1.0743558e-001
 -2.6180793e-002 -9.8922159e-002
 -2.4812817e-002 -8.8422089e-002
 -2.9841571e-002 -8.0342084e-002
 -3.7524794e-002 -7.6440678e-002
 -4.1494727e-002 -7.4272805e-002
 -3.7441907e-002 -6.9193836e-002
 -2.6403088e-002 -5.8463759e-002
 -1.4306124e-002 -4.4212204e-002
 -8.0132243e-003 -3.2624054e-002
 -1.0687726e-002 -2.9636387e-002
 -1.9705179e-002 -3.6255753e-002
 -2.8514955e-002 -4.7121198e-002
 -3.1075636e-002 -5.3629561e-002
 -2.5751058e-002 -4.9693708e-002
 -1.6049762e-002 -3.6029462e-002
 -7.9033967e-003 -1.9764601e-002
 -5.5693951e-003 -9.6601874e-003
 -9.0564839e-003 -1.0316020e-002
 -1.4622545e-002 -1.9337772e-002
 -1.7845516e-002 -2.9670164e-002
 -1.6664876e-002 -3.4755500e-002
 -1.2487804e-002 -3.2901367e-002
 -8.7625710e-003 -2.7761481e-002
 -8.2506988e-003 -2.4815726e-002
 -1.1138936e-002 -2.6828394e-002
 -1.5165430e-002 -3.1752057e-002
 -1.7488143e-002 -3.4644566e-002
 -1.6692758e-002 -3.1874360e-002
 -1.3502968e-002 -2.4258889e-002
 -9.8807346e-003 -1.6642651e-002
 -7.4527697e-003 -1.4305498e-002
 -6.5661928e-003 -1.8980777e-002
 -6.5950180e-003 -2.7570165e-002
 -7.0234873e-003 -3.4560183e-002
 -8.1713200e-003 -3.6174047e-002
 -1.0886674e-002 -3.3078940e-002
 -1.5383612e-002 -2.9524295e-002
 -2.0418535e-002 -2.9750039e-002
 -2.3622811e-002 -3.4478324e-002
 -2.2983296e-002 -4.0283025e-002
 -1.8416382e-002 -4.2375424e-002
 -1.2187604e-002 -3.8533414e-002
 -7.7370682e-003 -3.1096700e-002
 -7.5874157e-003 -2.5322993e-002
 -1.1745130e-002 -2.5360558e-002
 -1.7702672e-002 -3.0932158e-002
 -2.2040151e-002 -3.7539439e-002
 -2.2391206e-002 -3.9670951e-002
 -1.8608796e-002 -3.4964043e-002
 -1.2406433e-002 -2.5981097e-002
 -6.0102933e-003 -1.8316060e-002
 -9.5683822e-004 -1.6467949e-002
  2.1819904e-003 -2.0631634e-002
  3.2032506e-003 -2.6867786e-002
  1.7295786e-003 -3.0371883e-002
 -2.5647891e-003 -2.9171335e-002
 -9.0440672e-003 -2.5374915e-002
 -1.5474570e-002 -2.3066084e-002
 -1.8593627e-002 -2.4700269e-002
 -1.5895862e-002 -2.8975408e-002
 -7.5744035e-003 -3.1930740e-002
  2.8819252e-003 -3.0386135e-002
  1.0276882e-002 -2.4843576e-002
  1.0681498e-002 -1.9353995e-002
  3.9453874e-003 -1.8314977e-002
 -6.0650574e-003 -2.2794494e-002
 -1.3783341e-002 -2.9401303e-002
 -1.5366812e-002 -3.2786752e-002
 -1.0930962e-002 -2.9836598e-002
 -4.1754204e-003 -2.2303585e-002
  2.3206417e-004 -1.5603942e-002
 -3.0822695e-004 -1.4689327e-002
 -4.9129704e-003 -2.0171723e-002
 -1.0276009e-002 -2.7811988e-002
 -1.3170337e-002 -3.1812666e-002
 -1.2461163e-002 -2.9225588e-002
 -9.3167771e-003 -2.1982617e-002
 -5.7712830e-003 -1.5022847e-002
 -3.0458020e-003 -1.2207005e-002
 -9.6452968e-004 -1.3489659e-002
  1.2150117e-003 -1.5656945e-002
  3.5001739e-003 -1.5836552e-002
  4.7652156e-003 -1.4411657e-002
  3.6689641e-003 -1.4472209e-002
  1.4783551e-004 -1.8018367e-002
 -3.9749351e-003 -2.2427043e-002
 -6.0122391e-003 -2.0973509e-002
 -4.3851816e-003 -7.9437819e-003
  3.3391260e-005  1.5364925e-002
  4.3862966e-003  3.9020139e-002
  5.9612883e-003  4.9779476e-002
  4.3900359e-003  4.0370363e-002
  2.1435335e-003  1.5879431e-002
  2.8381619e-003 -8.3083482e-003
  8.5729965e-003 -1.6556688e-002
  1.8380717e-002 -4.0578968e-003
  2.8857272e-002  1.9388404e-002
  3.6418039e-002  3.6239784e-002
  3.9279812e-002  3.3964714e-002
  3.7661208e-002  1.4050116e-002
  3.2389294e-002 -9.8961715e-003
  2.3514162e-002 -2.3633694e-002
  1.0607046e-002 -2.4116224e-002
 -5.2850841e-003 -2.1627543e-002
 -2.0018516e-002 -2.9812467e-002
 -2.7337350e-002 -5.1651795e-002
 -2.2806267e-002 -7.3940652e-002
 -8.0678280e-003 -7.6934007e-002
  8.4756880e-003 -5.3102970e-002
  1.6519324e-002 -1.9370595e-002
  1.2032262e-002 -9.3614112e-003
  2.9439769e-003 -4.6373116e-002
  6.8301509e-003 -1.1476287e-001
  3.9894431e-002 -1.5343565e-001
  1.0309570e-001 -8.3651256e-002
  1.7488097e-001  1.4003105e-001
  2.1740104e-001  4.8644835e-001
  1.9498529e-001  8.4364724e-001
  9.5278953e-002  1.0640048e+000
 -5.9674842e-002  1.0379201e+000
 -2.2028510e-001  7.5461382e-001
 -3.3170398e-001  3.1320377e-001
 -3.5961120e-001 -1.2446991e-001
 -3.0517385e-001 -4.1316601e-001
 -2.0131994e-001 -4.9079904e-001
 -9.3463526e-002 -3.9612465e-001
 -1.6641577e-002 -2.3209790e-001
  1.8075059e-002 -1.0142195e-001
  2.1920572e-002 -5.4317651e-002
  1.5239757e-002 -7.6431066e-002
  1.2923460e-002 -1.1659562e-001
  1.7561984e-002 -1.2980739e-001
  2.2852976e-002 -1.0541701e-001
  2.2417617e-002 -6.5413421e-002
  1.6365326e-002 -4.0186444e-002
  1.1018345e-002 -4.3229433e-002
  1.3028346e-002 -6.3271286e-002
  2.3286638e-002 -7.6808748e-002
  3.5810261e-002 -6.8438020e-002
  4.2323488e-002 -4.2314139e-002
  3.8725562e-002 -1.6873375e-002
  2.8253425e-002 -8.7685672e-003
  1.8973503e-002 -1.9660834e-002
  1.7724451e-002 -3.5963311e-002
  2.5165009e-002 -4.0674515e-002
  3.5644795e-002 -2.7054519e-002
  4.1723221e-002 -3.2546796e-003
  3.9704834e-002  1.5051093e-002
  3.2043204e-002  1.7441979e-002
  2.5032143e-002  6.5019342e-003
  2.3862819e-002 -5.1664164e-003
  2.8975998e-002 -5.5185768e-003
  3.6348118e-002  7.6338159e-003
  4.1126522e-002  2.5839052e-002
  4.1523985e-002  3.7712245e-002
  3.9953944e-002  3.8454483e-002
  4.0673056e-002  3.3398967e-002
  4.6110957e-002  3.3107746e-002
  5.4850041e-002  4.4482215e-002
  6.2848067e-002  6.5286738e-002
  6.6795136e-002  8.6373201e-002
  6.6804056e-002  9.9367793e-002
  6.6324864e-002  1.0332304e-001
  6.9418046e-002  1.0498209e-001
  7.7604677e-002  1.1272643e-001
  8.8764568e-002  1.2947428e-001
  9.8834442e-002  1.5041528e-001
  1.0488308e-001  1.6729392e-001
  1.0707698e-001  1.7544453e-001
  1.0807363e-001  1.7755649e-001
  1.1042575e-001  1.8087112e-001
  1.1413769e-001  1.9022828e-001
  1.1636214e-001  2.0271643e-001
  1.1339654e-001  2.0854864e-001
  1.0339164e-001  1.9772878e-001
  8.7713294e-002  1.6748957e-001
  6.9960070e-002  1.2468247e-001
  5.3580177e-002  8.1381138e-002
  3.9891049e-002  4.7023040e-002
  2.7993461e-002  2.3088868e-002
  1.6333240e-002  4.0335654e-003
  4.4325757e-003 -1.6861539e-002
 -6.6740619e-003 -4.1615055e-002
 -1.5575618e-002 -6.6202771e-002
 -2.2063232e-002 -8.4344613e-002
 -2.7684146e-002 -9.2899012e-002
 -3.4619590e-002 -9.4283143e-002
 -4.3779008e-002 -9.4091163e-002
 -5.3648189e-002 -9.6141745e-002
 -6.1010884e-002 -9.9392805e-002
 -6.3190975e-002 -9.9289572e-002
 -6.0125055e-002 -9.2297105e-002
 -5.4718539e-002 -7.9646019e-002
 -5.1071749e-002 -6.6999397e-002
 -5.1815513e-002 -6.0182867e-002
 -5.6396888e-002 -6.0485711e-002
 -6.1522434e-002 -6.3499130e-002
 -6.3428023e-002 -6.2555848e-002
 -6.0413098e-002 -5.4126309e-002
 -5.3851276e-002 -4.0724602e-002
 -4.7157671e-002 -2.8972340e-002
 -4.3557427e-002 -2.4400480e-002
 -4.4194222e-002 -2.7208835e-002
 -4.7768829e-002 -3.2318565e-002
 -5.1732004e-002 -3.3633840e-002
 -5.4024636e-002 -2.9058801e-002
 -5.4067414e-002 -2.1998400e-002
 -5.2565357e-002 -1.8374629e-002
 -5.0408934e-002 -2.1488950e-002
 -4.7803260e-002 -2.8971115e-002
 -4.4294445e-002 -3.4475178e-002
 -3.9577490e-002 -3.2774889e-002
 -3.4301834e-002 -2.4106915e-002
 -3.0221312e-002 -1.4269080e-002
 -2.9319446e-002 -1.0252271e-002
 -3.2471212e-002 -1.4851148e-002
 -3.8546261e-002 -2.4516976e-002
 -4.4684355e-002 -3.2156710e-002
 -4.7694706e-002 -3.2666600e-002
 -4.5814635e-002 -2.6777313e-002
 -3.9835323e-002 -2.0264888e-002
 -3.2821838e-002 -1.9180445e-002
 -2.8588110e-002 -2.5036216e-002
 -2.9628096e-002 -3.3630215e-002
 -3.5720891e-002 -3.8453330e-002
 -4.3986331e-002 -3.5911799e-002
 -5.0411624e-002 -2.8201094e-002
 -5.2040041e-002 -2.1603723e-002
 -4.8548315e-002 -2.1639453e-002
 -4.2268049e-002 -2.8845437e-002
 -3.6633876e-002 -3.8394494e-002
 -3.4130571e-002 -4.3916523e-002
 -3.4891850e-002 -4.2059192e-002
 -3.6994451e-002 -3.4705642e-002
 -3.8126484e-002 -2.7297358e-002
 -3.7330712e-002 -2.4776919e-002
 -3.5620846e-002 -2.8353591e-002
 -3.4972898e-002 -3.5265665e-002
 -3.6534744e-002 -4.1249631e-002
 -3.9447683e-002 -4.3466494e-002
 -4.1265674e-002 -4.1708493e-002
 -3.9814415e-002 -3.7532767e-002
 -3.5054702e-002 -3.2645062e-002
 -2.9449811e-002 -2.8083027e-002
 -2.6344997e-002 -2.4601114e-002
 -2.7516874e-002 -2.3315131e-002
 -3.1703193e-002 -2.5412313e-002
 -3.5397598e-002 -3.0882983e-002
 -3.5413463e-002 -3.7523508e-002
 -3.1349109e-002 -4.1630899e-002
 -2.6043524e-002 -4.0439884e-002
 -2.3498473e-002 -3.4463297e-002
 -2.5718181e-002 -2.7627599e-002
 -3.0927801e-002 -2.4667483e-002
 -3.4663730e-002 -2.7506506e-002
 -3.3087616e-002 -3.3542584e-002
 -2.6111358e-002 -3.7489356e-002
 -1.7934046e-002 -3.5623036e-002
 -1.4361927e-002 -2.9112737e-002
 -1.8708477e-002 -2.3505867e-002
 -2.9229803e-002 -2.4448362e-002
 -4.0047442e-002 -3.2868816e-002
 -4.4988417e-002 -4.3591249e-002
 -4.1608382e-002 -4.8779623e-002
 -3.2547272e-002 -4.3816184e-002
 -2.3340052e-002 -3.1049755e-002
 -1.8441243e-002 -1.8327742e-002
 -1.8406612e-002 -1.3216645e-002
 -2.0241130e-002 -1.7362581e-002
 -2.0408819e-002 -2.5495106e-002
 -1.7941586e-002 -2.9875360e-002
 -1.5121539e-002 -2.6636639e-002
 -1.5261820e-002 -1.8877639e-002
 -1.9511380e-002 -1.3941966e-002
 -2.5429576e-002 -1.7105182e-002
 -2.8601881e-002 -2.6892828e-002
 -2.6162918e-002 -3.6068815e-002
 -1.9348187e-002 -3.7619545e-002
 -1.2900279e-002 -3.0753321e-002
 -1.1556828e-002 -2.1642479e-002
 -1.6345083e-002 -1.8009275e-002
 -2.3547246e-002 -2.1898524e-002
 -2.7340585e-002 -2.6980976e-002
 -2.4166142e-002 -2.3286853e-002
 -1.5439131e-002 -5.9714188e-003
 -6.5338925e-003  1.8997618e-002
 -2.6734441e-003  3.7696327e-002
 -4.9198876e-003  3.8277729e-002
 -9.3560238e-003  2.0697540e-002
 -1.0122849e-002 -1.9986758e-003
 -3.9119060e-003 -1.2734799e-002
  7.5213113e-003 -3.4526252e-003
  1.8744674e-002  1.8008390e-002
  2.4685312e-002  3.3139894e-002
  2.4005366e-002  2.6697512e-002
  1.9250721e-002 -1.2129265e-003
  1.3847120e-002 -3.4692605e-002
  8.8082466e-003 -5.4126680e-002
  2.1600370e-003 -5.1568754e-002
 -8.2117834e-003 -3.6886800e-002
 -2.0899953e-002 -2.9174366e-002
 -3.0204187e-002 -3.9924068e-002
 -2.9755932e-002 -6.2027834e-002
 -1.8124274e-002 -7.4921555e-002
 -1.5862314e-003 -6.3215215e-002
  9.2837273e-003 -3.3848110e-002
  7.8949154e-003 -1.5376864e-002
 -1.0678581e-003 -3.5521045e-002
 -1.8562439e-003 -9.1149426e-002
  2.2626485e-002 -1.3471935e-001
  7.6800002e-002 -9.3232553e-002
  1.4358769e-001  8.6021049e-002
  1.8841157e-001  3.9005721e-001
  1.7591492e-001  7.2726051e-001
  9.0671289e-002  9.6175674e-001
 -5.0648507e-002  9.8028543e-001
 -2.0394691e-001  7.5412167e-001
 -3.1761867e-001  3.5875783e-001
 -3.5680267e-001 -6.1762220e-002
 -3.1843840e-001 -3.6587429e-001
 -2.2927343e-001 -4.8019463e-001
 -1.2924285e-001 -4.2392993e-001
 -5.0938218e-002 -2.8251301e-001
 -6.8571531e-003 -1.5133636e-001
  9.8888395e-003 -8.5612690e-002
  1.4631042e-002 -8.3787763e-002
  1.8870848e-002 -1.0736381e-001
  2.4626181e-002 -1.1728205e-001
  2.7423691e-002 -1.0027156e-001
  2.3576960e-002 -7.0418278e-002
  1.5170354e-002 -5.0677689e-002
  8.9755108e-003 -5.2041725e-002
  1.0865702e-002 -6.6321791e-002
  2.0675119e-002 -7.5712784e-002
  3.1882389e-002 -6.8842199e-002
  3.6412095e-002 -4.9590485e-002
  3.0778542e-002 -3.2326454e-002
  1.8811090e-002 -2.8841122e-002
  8.9528292e-003 -3.8365850e-002
  8.2287758e-003 -4.8681017e-002
  1.7461909e-002 -4.6660352e-002
  3.1047707e-002 -2.9207102e-002
  4.1238025e-002 -5.6500739e-003
  4.3578804e-002  9.9799253e-003
  3.9505774e-002  1.0112192e-002
  3.4504363e-002 -8.3075361e-004
  3.3605574e-002 -1.0603817e-002
  3.7828709e-002 -9.1891510e-003
  4.4120704e-002  3.6453804e-003
  4.8431640e-002  1.9083432e-002
  4.9282859e-002  2.7229748e-002
  4.8943095e-002  2.5428573e-002
  5.1393745e-002  2.0136973e-002
  5.8842013e-002  2.1067364e-002
  6.9646644e-002  3.2754846e-002
  7.9360394e-002  5.0702939e-002
  8.4130320e-002  6.5288605e-002
  8.3793396e-002  7.0095473e-002
  8.2291902e-002  6.7729753e-002
  8.5007275e-002  6.8200052e-002
  9.4932325e-002  8.1048433e-002
  1.1043157e-001  1.0738712e-001
  1.2616816e-001  1.3826456e-001
  1.3654240e-001  1.6079644e-001
  1.3924107e-001  1.6738754e-001
  1.3644690e-001  1.6099790e-001
  1.3298859e-001  1.5247728e-001
  1.3286054e-001  1.5214662e-001
  1.3647271e-001  1.6203114e-001
  1.4040814e-001  1.7438760e-001
  1.3968610e-001  1.7727768e-001
  1.3089995e-001  1.6279118e-001
  1.1418850e-001  1.3185732e-001
  9.2955382e-002  9.2613717e-002
  7.1806802e-002  5.4368200e-002
  5.4174125e-002  2.2066488e-002
  4.1100732e-002 -4.8443596e-003
  3.1576261e-002 -2.9277600e-002
  2.3862014e-002 -5.2427613e-002
  1.6732669e-002 -7.2386240e-002
  9.8807219e-003 -8.6249537e-002
  3.4684611e-003 -9.3412277e-002
 -2.4958646e-003 -9.6698411e-002
 -8.3080950e-003 -1.0018274e-001
 -1.4127368e-002 -1.0556516e-001
 -1.9359522e-002 -1.1038159e-001
 -2.2622801e-002 -1.0993473e-001
 -2.2462026e-002 -1.0144633e-001
 -1.8514352e-002 -8.7063295e-002
 -1.2253730e-002 -7.3072967e-002
 -6.6755224e-003 -6.5702406e-002
 -4.8439626e-003 -6.6660363e-002
 -8.1346600e-003 -7.1888490e-002
 -1.5274354e-002 -7.4529913e-002
 -2.2890230e-002 -6.9876981e-002
 -2.7298202e-002 -5.8543132e-002
 -2.6526317e-002 -4.5623059e-002
 -2.1284336e-002 -3.6711821e-002
 -1.4342739e-002 -3.3995733e-002
 -8.6845578e-003 -3.5288760e-002
 -5.7415199e-003 -3.6340137e-002
 -4.8769646e-003 -3.4384797e-002
 -4.4006681e-003 -3.0040905e-002
 -3.1628032e-003 -2.6148939e-002
 -1.6406274e-003 -2.5200527e-002
 -1.4616667e-003 -2.7307834e-002
 -3.8833999e-003 -3.0306127e-002
 -8.4265134e-003 -3.1747424e-002
 -1.2791209e-002 -3.0768258e-002
 -1.4335264e-002 -2.8348325e-002
 -1.2070434e-002 -2.6033768e-002
 -7.6208577e-003 -2.4465550e-002
 -4.2984287e-003 -2.3137248e-002
 -4.8404217e-003 -2.1531034e-002
 -9.3823137e-003 -2.0321602e-002
 -1.5229854e-002 -2.1188506e-002
 -1.8642325e-002 -2.5221982e-002
 -1.7448008e-002 -3.1384168e-002
 -1.2585632e-002 -3.6572107e-002
 -7.4168878e-003 -3.7659419e-002
 -5.3398225e-003 -3.4043719e-002
 -7.4155793e-003 -2.8469103e-002
 -1.1752632e-002 -2.5244584e-002
 -1.4981508e-002 -2.7087860e-002
 -1.4716156e-002 -3.2792878e-002
 -1.1249733e-002 -3.8028973e-002
 -7.1448415e-003 -3.8704198e-002
 -5.2679186e-003 -3.4281043e-002
 -6.8297478e-003 -2.8397428e-002
 -1.0863551e-002 -2.6140172e-002
 -1.5348322e-002 -3.0066861e-002
 -1.8868630e-002 -3.8088683e-002
 -2.1312461e-002 -4.4902593e-002
 -2.3170031e-002 -4.5975738e-002
 -2.4196718e-002 -4.0856042e-002
 -2.2969755e-002 -3.3290301e-002
 -1.7963708e-002 -2.8139892e-002
 -9.4483968e-003 -2.7666982e-002
 -5.0780463e-004 -3.0234466e-002
  4.1342710e-003 -3.2287842e-002
  1.0384476e-003 -3.1756383e-002
 -9.2752251e-003 -2.9890899e-002
 -2.2039456e-002 -2.9894197e-002
 -3.0875757e-002 -3.3570143e-002
 -3.1703773e-002 -3.9005541e-002
 -2.5219155e-002 -4.1580608e-002
 -1.6170816e-002 -3.7727234e-002
 -9.8524811e-003 -2.8303351e-002
 -8.4626082e-003 -1.8571418e-002
 -9.9828808e-003 -1.4494965e-002
 -1.0338572e-002 -1.8115315e-002
 -7.0736130e-003 -2.5779373e-002
 -1.6027671e-003 -3.0818051e-002
  1.7319209e-003 -2.8775147e-002
 -9.0454528e-004 -2.1035308e-002
 -9.5745779e-003 -1.3807466e-002
 -2.0085748e-002 -1.3191042e-002
 -2.6786040e-002 -2.0203780e-002
 -2.6514799e-002 -2.9828797e-002
 -2.0667473e-002 -3.4856384e-002
 -1.3889200e-002 -3.1536077e-002
 -1.0444669e-002 -2.2515840e-002
 -1.1157637e-002 -1.4680338e-002
 -1.3240248e-002 -1.3664052e-002
 -1.2994579e-002 -1.9450072e-002
 -9.1363274e-003 -2.6609021e-002
 -3.9259113e-003 -2.8819124e-002
 -1.2460831e-003 -2.3835208e-002
 -3.2017493e-003 -1.4738526e-002
 -8.2039998e-003 -6.6743916e-003
 -1.2179424e-002 -2.1150587e-003
 -1.1941550e-002  1.0568231e-003
 -7.9633026e-003  6.8378894e-003
 -4.0830937e-003  1.6234977e-002
 -4.2498810e-003  2.4906906e-002
 -8.8738957e-003  2.6081668e-002
 -1.3878858e-002  1.6798179e-002
 -1.3530064e-002  2.0565124e-003
 -5.0002819e-003 -7.4878487e-003
  8.9644413e-003 -3.3637382e-003
  2.1506429e-002  1.3212739e-002
  2.6369912e-002  3.0684503e-002
  2.2250250e-002  3.4880888e-002
  1.3353859e-002  1.9763615e-002
  5.8114864e-003 -7.2745667e-003
  2.7405123e-003 -3.0475033e-002
  2.0275445e-003 -3.7824089e-002
 -1.2435442e-003 -3.0644510e-002
 -9.7476609e-003 -2.2432504e-002
 -2.0637366e-002 -2.7131771e-002
 -2.7179907e-002 -4.6104928e-002
 -2.4392444e-002 -6.5371170e-002
 -1.4060080e-002 -6.7022011e-002
 -4.4059400e-003 -4.6751586e-002
 -3.5336557e-003 -2.2215605e-002
 -1.1170589e-002 -2.1848685e-002
 -1.5633428e-002 -5.8651011e-002
 -6.0430980e-005 -1.0765258e-001
  4.4662455e-002 -1.0768090e-001
  1.0870748e-001  6.2761525e-003
  1.6271511e-001  2.5603039e-001
  1.7055542e-001  5.8868138e-001
  1.0929140e-001  8.8594767e-001
 -1.5258199e-002  1.0161648e+000
 -1.6748378e-001  9.0268052e-001
 -2.9719841e-001  5.6910713e-001
 -3.6297716e-001  1.3299441e-001
 -3.5064353e-001 -2.5048894e-001
 -2.7705117e-001 -4.6347790e-001
 -1.7825158e-001 -4.7680750e-001
 -9.0113863e-002 -3.5094108e-001
 -3.2796204e-002 -1.9044852e-001
 -6.6873367e-003 -8.2758383e-002
  4.4095602e-004 -5.7887015e-002
  1.8907550e-003 -8.8644007e-002
  4.0542383e-003 -1.2368176e-001
  5.9760321e-003 -1.2686288e-001
  4.3965870e-003 -9.7006837e-002
 -1.0102208e-003 -5.9359689e-002
 -6.3850709e-003 -4.0420374e-002
 -6.8149734e-003 -4.7134108e-002
 -6.2123396e-004 -6.4748486e-002
  8.9655515e-003 -7.1851509e-002
  1.6127523e-002 -5.8552495e-002
  1.6787693e-002 -3.3325523e-002
  1.1507697e-002 -1.4484101e-002
  4.8468678e-003 -1.4508542e-002
  1.8815941e-003 -3.0172582e-002
  4.6775598e-003 -4.5867482e-002
  1.1238500e-002 -4.6567188e-002
  1.7419442e-002 -2.9635886e-002
  2.0083508e-002 -6.2562569e-003
  1.9108275e-002  8.0494065e-003
  1.6910240e-002  5.7432398e-003
  1.6295040e-002 -7.2698702e-003
  1.8469765e-002 -1.6935799e-002
  2.2662129e-002 -1.2354952e-002
  2.7253612e-002  5.9796161e-003
  3.1237786e-002  2.7171532e-002
  3.4769521e-002  3.8952412e-002
  3.8574763e-002  3.7291556e-002
  4.2935527e-002  2.9081275e-002
  4.7330819e-002  2.6221122e-002
  5.1079490e-002  3.6204836e-002
  5.4236882e-002  5.6647956e-002
  5.7942997e-002  7.7778570e-002
  6.3658931e-002  9.0446834e-002
  7.2008371e-002  9.3183383e-002
  8.2157254e-002  9.2874489e-002
  9.2226114e-002  9.8862452e-002
  1.0051640e-001  1.1546657e-001
  1.0645855e-001  1.3881145e-001
  1.1062203e-001  1.6013094e-001
  1.1382232e-001  1.7252774e-001
  1.1621022e-001  1.7566825e-001
  1.1716009e-001  1.7489749e-001
  1.1604662e-001  1.7582901e-001
  1.1302110e-001  1.7900644e-001
  1.0899441e-001  1.7891679e-001
  1.0469151e-001  1.6807423e-001
  9.9595286e-002  1.4280755e-001
  9.1869284e-002  1.0617553e-001
  7.9575519e-002  6.5943207e-002
  6.2474973e-002  2.9498624e-002
  4.2860362e-002 -3.0057311e-004
  2.4573438e-002 -2.5376284e-002
  1.0746010e-002 -4.9055068e-002
  1.8264328e-003 -7.2231773e-002
 -4.4544234e-003 -9.2181336e-002
 -1.1038189e-002 -1.0476835e-001
 -1.8970348e-002 -1.0802233e-001
 -2.6285929e-002 -1.0395207e-001
 -2.9435671e-002 -9.7250387e-002
 -2.6254863e-002 -9.2089315e-002
 -1.8279272e-002 -8.9745231e-002
 -1.0358689e-002 -8.8731497e-002
 -7.6663421e-003 -8.6984902e-002
 -1.2156555e-002 -8.3953028e-002
 -2.1071495e-002 -8.0709042e-002
 -2.8789451e-002 -7.8238790e-002
 -3.0654308e-002 -7.5705623e-002
 -2.6165110e-002 -7.0701325e-002
 -1.9126405e-002 -6.1465035e-002
 -1.4687728e-002 -4.9175425e-002
 -1.5532859e-002 -3.8046005e-002
 -2.0083366e-002 -3.2688525e-002
 -2.3994991e-002 -3.4624522e-002
 -2.3731155e-002 -4.0737145e-002
 -1.9360691e-002 -4.5204111e-002
 -1.4449334e-002 -4.3672074e-002
 -1.3088179e-002 -3.6448721e-002
 -1.6450140e-002 -2.8109756e-002
 -2.1605370e-002 -2.3750683e-002
 -2.3645333e-002 -2.4855489e-002
 -1.9499023e-002 -2.8078151e-002
 -1.0511289e-002 -2.8024369e-002
 -1.7133503e-003 -2.1929390e-002
  1.7562335e-003 -1.2392884e-002
 -1.6537026e-003 -5.8547384e-003
 -8.8327332e-003 -7.7673545e-003
 -1.4414424e-002 -1.8142439e-002
 -1.4794900e-002 -3.1035489e-002
 -1.0722120e-002 -3.8694512e-002
 -6.4034913e-003 -3.6978689e-002
 -6.0097607e-003 -2.8183337e-002
 -1.0277044e-002 -1.9138141e-002
 -1.5898281e-002 -1.6086024e-002
 -1.8190553e-002 -2.0317067e-002
 -1.4941054e-002 -2.7785284e-002
 -8.4243225e-003 -3.2806423e-002
 -3.8863702e-003 -3.2687873e-002
 -5.5864263e-003 -2.9557540e-002
 -1.3378220e-002 -2.8059154e-002
 -2.2517532e-002 -3.1080776e-002
 -2.6926154e-002 -3.7089157e-002
 -2.3574412e-002 -4.1313318e-002
 -1.4773202e-002 -3.9841990e-002
 -6.6292345e-003 -3.3150197e-002
 -4.7957986e-003 -2.6034083e-002
 -1.0613939e-002 -2.4084053e-002
 -2.0224429e-002 -2.9060434e-002
 -2.7382222e-002 -3.7347022e-002
 -2.7733897e-002 -4.2675400e-002
 -2.1489419e-002 -4.0996066e-002
 -1.2813076e-002 -3.3652721e-002
 -6.6502764e-003 -2.6298056e-002
 -5.4695055e-003 -2.4431148e-002
 -8.1526548e-003 -2.9070856e-002
 -1.1553549e-002 -3.6097652e-002
 -1.3196261e-002 -3.9723039e-002
 -1.2954969e-002 -3.7273759e-002
 -1.2618118e-002 -3.1368284e-002
 -1.3965625e-002 -2.7649432e-002
 -1.7118397e-002 -3.0016597e-002
 -2.0471919e-002 -3.7202920e-002
 -2.2135967e-002 -4.3577519e-002
 -2.1510225e-002 -4.3581929e-002
 -1.9710155e-002 -3.6266903e-002
 -1.8504120e-002 -2.6234972e-002
 -1.8740951e-002 -2.0131746e-002
 -1.9639887e-002 -2.1495450e-002
 -1.9519604e-002 -2.8064914e-002
 -1.7363667e-002 -3.3752939e-002
 -1.3874741e-002 -3.3636260e-002
 -1.1132518e-002 -2.7965203e-002
 -1.1111543e-002 -2.1940285e-002
 -1.4254335e-002 -2.1431683e-002
 -1.9149013e-002 -2.8067302e-002
 -2.3505535e-002 -3.7670829e-002
 -2.5625727e-002 -4.3375226e-002
 -2.5250390e-002 -4.0913059e-002
 -2.3346454e-002 -3.1919175e-002
 -2.1139622e-002 -2.2601045e-002
 -1.9378047e-002 -1.8962966e-002
 -1.8226659e-002 -2.2333668e-002
 -1.7621233e-002 -2.8634898e-002
 -1.7539735e-002 -3.1809531e-002
 -1.7831322e-002 -2.8549998e-002
 -1.7954083e-002 -2.0613528e-002
 -1.7133703e-002 -1.3142867e-002
 -1.5089737e-002 -1.0622986e-002
 -1.2798778e-002 -1.3900074e-002
 -1.2283127e-002 -2.0324430e-002
 -1.5197378e-002 -2.6297381e-002
 -2.1033084e-002 -2.9609577e-002
 -2.6540880e-002 -2.9624103e-002
 -2.7322628e-002 -2.5723800e-002
 -2.0917648e-002 -1.6367956e-002
 -9.2316379e-003 -4.7441342e-004
  1.8233924e-003  1.9650977e-002
  5.8263460e-003  3.7051446e-002
  3.7387096e-004  4.2997167e-002
 -1.0611273e-002  3.3053626e-002
 -1.8913632e-002  1.1874559e-002
 -1.7325754e-002 -7.8883273e-003
 -4.6906833e-003 -1.3205145e-002
  1.3003131e-002 -7.5885209e-005
  2.6434768e-002  2.2422654e-002
  2.9128133e-002  3.7507336e-002
  2.1547843e-002  3.2440065e-002
  1.0127181e-002  8.2001105e-003
  1.9897347e-003 -2.0753370e-002
 -4.9726011e-004 -3.7183512e-002
 -1.0906876e-003 -3.4445391e-002
 -5.8542306e-003 -2.1864775e-002
 -1.7293650e-002 -1.7107149e-002
 -3.1357306e-002 -3.0893597e-002
 -4.0065825e-002 -5.6473726e-002
 -3.7937617e-002 -7.3686669e-002
 -2.6965550e-002 -6.6182535e-002
 -1.5417356e-002 -3.8474264e-002
 -1.0538773e-002 -1.7136278e-002
 -1.0564548e-002 -3.0901932e-002
 -3.1122276e-003 -8.1357885e-002
  2.7006906e-002 -1.2666305e-001
  8.4474847e-002 -9.5714792e-002
  1.5384178e-001  6.9407373e-002
  2.0192515e-001  3.6659722e-001
  1.9322628e-001  7.1437805e-001
  1.1058173e-001  9.7872897e-001
 -3.1494226e-002  1.0365910e+000
 -1.8987554e-001  8.4178316e-001
 -3.1182447e-001  4.5436946e-001
 -3.5969628e-001  1.4456782e-002
 -3.2759361e-001 -3.2596559e-001
 -2.4105170e-001 -4.7476645e-001
 -1.4111400e-001 -4.3536051e-001
 -6.2893772e-002 -2.8949173e-001
 -2.0964307e-002 -1.4206771e-001
 -8.4807485e-003 -6.3624262e-002
 -7.8866333e-003 -6.3031298e-002
 -4.6610496e-003 -1.0073365e-001
  4.7792440e-003 -1.2692079e-001
  1.4518558e-002 -1.1637461e-001
  1.6825214e-002 -7.8791380e-002
  9.4788144e-003 -4.3120888e-002
 -2.3396563e-003 -3.1865724e-002
 -1.0089475e-002 -4.5286938e-002
 -8.1024365e-003 -6.5018735e-002
  2.7138372e-003 -7.1065482e-002
  1.5935981e-002 -5.7434903e-002
  2.4084687e-002 -3.4802236e-002
  2.3114592e-002 -1.9938484e-002
  1.4174598e-002 -2.1649800e-002
  2.1024272e-003 -3.4512315e-002
 -7.6834763e-003 -4.4438525e-002
 -1.1767320e-002 -4.0589737e-002
 -9.5411752e-003 -2.3634652e-002
 -2.5366639e-003 -4.2581619e-003
  6.7098371e-003  6.0530233e-003
  1.5568978e-002  4.1335577e-003
  2.1917828e-002 -3.0001925e-003
  2.4690130e-002 -4.4471264e-003
  2.4299608e-002  5.6367266e-003
  2.2578817e-002  2.3683677e-002
  2.1966636e-002  4.0030427e-002
  2.4230699e-002  4.6810698e-002
  2.9449306e-002  4.3908095e-002
  3.6140440e-002  3.8532095e-002
  4.2404995e-002  3.9217306e-002
  4.7338958e-002  4.9395333e-002
  5.1553674e-002  6.5551167e-002
  5.6466581e-002  8.0983234e-002
  6.3037754e-002  9.1660967e-002
  7.0967205e-002  9.9263635e-002
  7.9093700e-002  1.0908928e-001
  8.6537736e-002  1.2491549e-001
  9.3508919e-002  1.4529840e-001
  1.0095203e-001  1.6440481e-001
  1.0923488e-001  1.7655121e-001
  1.1707880e-001  1.8063911e-001
  1.2191314e-001  1.8080173e-001
  1.2163643e-001  1.8274318e-001
  1.1642282e-001  1.8868160e-001
  1.0904408e-001  1.9499317e-001
  1.0307397e-001  1.9439560e-001
  1.0014815e-001  1.8094150e-001
  9.8365168e-002  1.5397065e-001
  9.3233228e-002  1.1821392e-001
  8.0812390e-002  8.0360045e-002
  6.0805810e-002  4.5001679e-002
  3.7255771e-002  1.3001134e-002
  1.6224629e-002 -1.6869287e-002
  2.0694481e-003 -4.4934442e-002
 -5.0547805e-003 -6.9141235e-002
 -8.6247769e-003 -8.6341727e-002
 -1.2699199e-002 -9.5131192e-002
 -1.8722111e-002 -9.7503148e-002
 -2.4711916e-002 -9.7739873e-002
 -2.7333249e-002 -9.9300461e-002
 -2.5152741e-002 -1.0230702e-001
 -2.0357695e-002 -1.0371290e-001
 -1.7460903e-002 -1.0019658e-001
 -1.9954479e-002 -9.1374499e-002
 -2.7512134e-002 -8.0658766e-002
 -3.6042303e-002 -7.2895351e-002
 -4.0604566e-002 -7.0606445e-002
 -3.9005436e-002 -7.1853351e-002
 -3.3312412e-002 -7.1574289e-002
 -2.8049405e-002 -6.5369462e-002
 -2.6569853e-002 -5.2905442e-002
 -2.8457188e-002 -3.8309117e-002
 -3.0047432e-002 -2.7258975e-002
 -2.7676942e-002 -2.3026613e-002
 -2.0998889e-002 -2.4462803e-002
 -1.3702027e-002 -2.7355062e-002
 -1.0868249e-002 -2.7847874e-002
 -1.4957840e-002 -2.5184737e-002
 -2.3511280e-002 -2.1697349e-002
 -3.0577225e-002 -2.0328856e-002
 -3.0923540e-002 -2.1927558e-002
 -2.3955395e-002 -2.4632360e-002
 -1.4278519e-002 -2.5543453e-002
 -8.5043702e-003 -2.3514529e-002
 -1.0435532e-002 -2.0180504e-002
 -1.8237808e-002 -1.8399983e-002
 -2.5683510e-002 -1.9468492e-002
 -2.6557944e-002 -2.1627767e-002
 -1.9062497e-002 -2.1399798e-002
 -7.0638360e-003 -1.6722795e-002
  2.5694495e-003 -9.3341567e-003
  4.5457801e-003 -4.1797211e-003
 -1.5906476e-003 -5.9633916e-003
 -1.1631723e-002 -1.5286239e-002
 -1.9909983e-002 -2.7565263e-002
 -2.3004049e-002 -3.5864851e-002
 -2.1343108e-002 -3.5641695e-002
 -1.8037627e-002 -2.8109675e-002
 -1.6108112e-002 -1.9375520e-002
 -1.6479040e-002 -1.5951678e-002
 -1.8017945e-002 -2.0053400e-002
 -1.9123352e-002 -2.8176793e-002
 -1.9219004e-002 -3.3953649e-002
 -1.8946489e-002 -3.3118262e-002
 -1.9065690e-002 -2.6730700e-002
 -1.9300373e-002 -2.0165944e-002
 -1.8378849e-002 -1.8769865e-002
 -1.5313687e-002 -2.3608910e-002
 -1.0755326e-002 -3.0674143e-002
 -7.0214888e-003 -3.4073126e-002
 -6.5554872e-003 -3.0731789e-002
 -9.8982946e-003 -2.2838701e-002
 -1.4967125e-002 -1.6186811e-002
 -1.8353941e-002 -1.5679668e-002
 -1.7835328e-002 -2.1553577e-002
 -1.4109991e-002 -2.9262085e-002
 -1.0333635e-002 -3.3020475e-002
 -9.6426654e-003 -3.0163630e-002
 -1.2604235e-002 -2.2983049e-002
 -1.6617941e-002 -1.6719096e-002
 -1.7862338e-002 -1.5453663e-002
 -1.4398275e-002 -1.9240895e-002
 -7.8775664e-003 -2.4514970e-002
 -2.5078297e-003 -2.7331814e-002
 -1.9395283e-003 -2.6533727e-002
 -6.3588813e-003 -2.4216943e-002
 -1.2203797e-002 -2.3351818e-002
 -1.4795929e-002 -2.4807822e-002
 -1.1949335e-002 -2.6534330e-002
 -5.7331788e-003 -2.5647396e-002
 -9.2773315e-004 -2.1570699e-002
 -1.3584856e-003 -1.7323921e-002
 -6.8532837e-003 -1.7459697e-002
 -1.3253893e-002 -2.4054378e-002
 -1.5588183e-002 -3.4190219e-002
 -1.1932176e-002 -4.1357617e-002
 -4.9721393e-003 -4.0129027e-002
  3.8136456e-005 -3.0593562e-002
 -5.4105722e-004 -1.8824145e-002
 -5.7053720e-003 -1.2674161e-002
 -1.0439910e-002 -1.5934144e-002
 -9.6284695e-003 -2.5340014e-002
 -2.2647498e-003 -3.2958721e-002
  7.3223694e-003 -3.2319340e-002
  1.2390678e-002 -2.3537981e-002
  8.8483263e-003 -1.3326428e-002
 -1.4403514e-003 -9.7633883e-003
 -1.1740017e-002 -1.5972614e-002
 -1.5281221e-002 -2.7691195e-002
 -1.0295322e-002 -3.6720835e-002
 -1.4098735e-003 -3.7462964e-002
  3.7729176e-003 -3.1148758e-002
  4.5617551e-004 -2.4193309e-002
 -9.5490530e-003 -2.1978847e-002
 -1.8922359e-002 -2.3416086e-002
 -2.0184075e-002 -2.1307333e-002
 -1.1302916e-002 -8.7442067e-003
  2.6045593e-003  1.3527299e-002
  1.2881518e-002  3.5327311e-002
  1.3581311e-002  4.3287921e-002
  5.7622018e-003  3.1071561e-002
 -3.3208607e-003  5.5837260e-003
 -5.5226613e-003 -1.6522429e-002
  2.3524248e-003 -2.0369673e-002
  1.6463954e-002 -4.1302951e-003
  2.8966451e-002  1.8873791e-002
  3.3642136e-002  2.9544450e-002
  2.9779333e-002  1.7243375e-002
  2.1581471e-002 -1.1960918e-002
  1.3969124e-002 -3.9815749e-002
  8.5062085e-003 -5.0087121e-002
  2.8638039e-003 -4.1445338e-002
 -5.8369294e-003 -2.8360083e-002
 -1.6935729e-002 -2.8655115e-002
 -2.5354050e-002 -4.7405191e-002
 -2.5305260e-002 -7.0976738e-002
 -1.5703858e-002 -7.7640501e-002
 -2.4801416e-003 -5.7663568e-002
  5.1678095e-003 -2.6283719e-002
  2.7519770e-003 -1.6007452e-002
 -3.4147196e-003 -4.9754456e-002
  2.1634179e-003 -1.1284721e-001
  3.3956624e-002 -1.4708310e-001
  9.2341225e-002 -7.8146036e-002
  1.5694031e-001  1.3557324e-001
  1.9277804e-001  4.6263695e-001
  1.6772327e-001  7.9615010e-001
  7.1823657e-002  9.9760234e-001
 -7.3353523e-002  9.6611854e-001
 -2.2197576e-001  6.9413649e-001
 -3.2468945e-001  2.7600516e-001
 -3.5159708e-001 -1.3704150e-001
 -3.0471650e-001 -4.1041337e-001
 -2.1362237e-001 -4.8677886e-001
 -1.1796535e-001 -4.0151821e-001
 -4.7703725e-002 -2.4888902e-001
 -1.2021034e-002 -1.2343743e-001
 -1.4550331e-003 -7.2696100e-002
  5.9121213e-004 -8.5864064e-002
  5.7025784e-003 -1.1813212e-001
  1.5147204e-002 -1.2882970e-001
  2.3036276e-002 -1.0698407e-001
  2.3731807e-002 -7.0764232e-002
  1.7253345e-002 -4.6872181e-002
  9.0877782e-003 -4.8241343e-002
  5.5163225e-003 -6.6233544e-002
  8.7428755e-003 -8.0452624e-002
  1.5698080e-002 -7.6021775e-002
  2.1025583e-002 -5.4313387e-002
  2.1519250e-002 -2.9864612e-002
  1.8372315e-002 -1.7609085e-002
  1.5678796e-002 -2.1364265e-002
  1.6687658e-002 -3.2264229e-002
  2.1036586e-002 -3.7178355e-002
  2.5156744e-002 -2.9524720e-002
  2.5394596e-002 -1.3801652e-002
  2.1254671e-002 -8.4466679e-004
  1.6110159e-002  1.5836608e-003
  1.4788825e-002 -4.9718033e-003
  1.9873700e-002 -1.1422277e-002
  2.9592968e-002 -8.9607021e-003
  3.8917133e-002  3.6852794e-003
  4.3094892e-002  1.9408663e-002
  4.0965084e-002  2.8657445e-002
  3.5721652e-002  2.7236596e-002
  3.2730430e-002  1.9753685e-002
  3.5952185e-002  1.6137661e-002
  4.5544762e-002  2.4095667e-002
  5.8150901e-002  4.3480722e-002
  6.9405744e-002  6.6728213e-002
  7.6770630e-002  8.4754334e-002
  8.0720661e-002  9.3500806e-002
  8.3770841e-002  9.6260632e-002
  8.8348973e-002  1.0036092e-001
  9.5155914e-002  1.1119496e-001
  1.0305005e-001  1.2829810e-001
  1.1024081e-001  1.4626556e-001
  1.1568761e-001  1.5931465e-001
  1.1961572e-001  1.6563736e-001
  1.2286329e-001  1.6805228e-001
  1.2574607e-001  1.7072935e-001
  1.2742434e-001  1.7488998e-001
  1.2620715e-001  1.7704469e-001
  1.2056922e-001  1.7111461e-001
  1.1005562e-001  1.5274814e-001
  9.5558438e-002  1.2254531e-001
  7.8847760e-002  8.5824643e-002
  6.1792703e-002  4.9343681e-002
  4.5803387e-002  1.7590154e-002
  3.1698715e-002 -8.7146833e-003
  1.9838088e-002 -3.1248009e-002
  1.0250127e-002 -5.1527622e-002
  2.6223209e-003 -6.9357330e-002
 -3.7272341e-003 -8.3408268e-002
 -9.6295565e-003 -9.2956941e-002
 -1.5662324e-002 -9.8970821e-002
 -2.1747883e-002 -1.0338484e-001
 -2.7032336e-002 -1.0716836e-001
 -3.0308732e-002 -1.0907138e-001
 -3.0734232e-002 -1.0642608e-001
 -2.8452689e-002 -9.7657208e-002
 -2.4733506e-002 -8.4438548e-002
 -2.1491507e-002 -7.1578268e-002
 -2.0412378e-002 -6.4319434e-002
 -2.2116321e-002 -6.4847450e-002
 -2.5788707e-002 -7.0583240e-002
 -2.9428698e-002 -7.5598450e-002
 -3.0709750e-002 -7.4392116e-002
 -2.8087966e-002 -6.5357255e-002
 -2.1656081e-002 -5.1588596e-002
 -1.3329728e-002 -3.8551136e-002
 -6.1899496e-003 -3.0509441e-002
 -3.1283939e-003 -2.8216700e-002
 -5.3373579e-003 -2.9353324e-002
 -1.1503736e-002 -3.0996857e-002
 -1.8208278e-002 -3.1915093e-002
 -2.1586788e-002 -3.2926790e-002
 -1.9380395e-002 -3.5230830e-002
 -1.2271821e-002 -3.8373253e-002
 -3.6858696e-003 -3.9860776e-002
  2.0227789e-003 -3.6981335e-002
  2.0049786e-003 -2.9365662e-002
 -3.4485738e-003 -2.0056431e-002
 -1.1077076e-002 -1.4166347e-002
 -1.6519471e-002 -1.5453462e-002
 -1.6815850e-002 -2.3475178e-002
 -1.1997405e-002 -3.3505915e-002
 -4.8282480e-003 -3.9484413e-002
  1.0079865e-003 -3.8061455e-002
  3.0910388e-003 -3.0834241e-002
  1.3901410e-003 -2.3147464e-002
 -2.3020335e-003 -2.0465424e-002
 -5.9922953e-003 -2.4779861e-002
 -8.8727381e-003 -3.3566378e-002
 -1.1582342e-002 -4.2059639e-002
 -1.5012284e-002 -4.6531645e-002
 -1.9002769e-002 -4.6445845e-002
 -2.1890625e-002 -4.4043023e-002
 -2.1452339e-002 -4.1938772e-002
 -1.6680461e-002 -4.0998437e-002
 -8.9862374e-003 -4.0088572e-002
 -1.8120307e-003 -3.7705653e-002
  1.3266855e-003 -3.3811471e-002
 -9.1771513e-004 -3.0233734e-002
 -6.7544233e-003 -2.9177007e-002
 -1.2313373e-002 -3.1147801e-002
 -1.4141035e-002 -3.4232819e-002
 -1.1450841e-002 -3.5518655e-002
 -6.5853901e-003 -3.3582775e-002
 -3.2950838e-003 -2.9918060e-002
 -4.0308175e-003 -2.7911886e-002
 -8.1501738e-003 -3.0051822e-002
 -1.2348472e-002 -3.5579273e-002
 -1.3020074e-002 -4.0653075e-002
 -8.9441479e-003 -4.1183693e-002
 -2.3827178e-003 -3.6242251e-002
  2.3049694e-003 -2.9240648e-002
  1.5976363e-003 -2.5652143e-002
 -4.6903747e-003 -2.8821441e-002
 -1.3080614e-002 -3.7064321e-002
 -1.8573964e-002 -4.4535896e-002
 -1.7865758e-002 -4.5440963e-002
 -1.1406290e-002 -3.8450019e-002
 -3.0560873e-003 -2.7993840e-002
  2.4757332e-003 -2.1148357e-002
  2.5467750e-003 -2.2431718e-002
 -1.9900190e-003 -3.0346387e-002
 -7.7423012e-003 -3.8484880e-002
 -1.1308473e-002 -4.0368391e-002
 -1.1467364e-002 -3.4339730e-002
 -9.6159221e-003 -2.4701576e-002
 -8.3373261e-003 -1.8315765e-002
 -9.2803878e-003 -1.9265756e-002
 -1.1939768e-002 -2.5805148e-002
 -1.4171394e-002 -3.1979167e-002
 -1.3947904e-002 -3.2572202e-002
 -1.0943702e-002 -2.7369687e-002
 -6.7599302e-003 -2.1219070e-002
 -3.7261243e-003 -1.9910982e-002
 -3.2204163e-003 -2.5269307e-002
 -4.7941952e-003 -3.3549400e-002
 -6.7105241e-003 -3.8445321e-002
 -7.3847161e-003 -3.6192591e-002
 -6.6450252e-003 -2.8509708e-002
 -5.7896362e-003 -2.0766009e-002
 -6.4334626e-003 -1.6917667e-002
 -9.0280478e-003 -1.5657401e-002
 -1.2232960e-002 -1.1404776e-002
 -1.3610241e-002  3.1750109e-004
 -1.1215281e-002  1.7608809e-002
 -5.0581570e-003  3.1902562e-002
  2.6136265e-003  3.3741638e-002
  8.4188946e-003  2.0521982e-002
  9.7343474e-003 -1.0642394e-004
  6.3392526e-003 -1.4658969e-002
  7.5098772e-004 -1.3438214e-002
 -2.9736179e-003  1.8688349e-003
 -1.4636757e-003  1.8807622e-002
  5.7911952e-003  2.3070713e-002
  1.5560850e-002  9.1154280e-003
  2.1950478e-002 -1.5825192e-002
  1.9343746e-002 -3.7652734e-002
  5.8131865e-003 -4.6677959e-002
 -1.4882755e-002 -4.4986448e-002
 -3.4369695e-002 -4.3616087e-002
 -4.3740445e-002 -5.1546414e-002
 -3.8786222e-002 -6.6045877e-002
 -2.3199967e-002 -7.3692262e-002
 -7.1026484e-003 -6.2777668e-002
 -8.7686340e-004 -3.7306398e-002
 -7.5516211e-003 -1.9120445e-002
 -1.8750235e-002 -3.2287522e-002
 -1.7939308e-002 -7.8224163e-002
  9.5158078e-003 -1.2051425e-001
  6.4722138e-002 -9.5639066e-002
  1.2943127e-001  5.0449708e-002
  1.7109509e-001  3.1974638e-001
  1.5782407e-001  6.4220527e-001
  7.5981118e-002  8.9678162e-001
 -5.9610990e-002  9.6726709e-001
 -2.0935299e-001  8.0349975e-001
 -3.2545891e-001  4.5215227e-001
 -3.7314287e-001  3.7474515e-002
 -3.4528006e-001 -2.9846782e-001
 -2.6308456e-001 -4.6252673e-001
 -1.6331940e-001 -4.4736185e-001
 -7.9859991e-002 -3.2070206e-001
 -2.9802479e-002 -1.7798946e-001
 -1.0663319e-002 -8.9323241e-002
 -8.0791509e-003 -7.1153885e-002
 -7.5498375e-003 -9.4161351e-002
 -2.6777665e-003 -1.1540234e-001
  4.1679363e-003 -1.0994720e-001
  7.2127306e-003 -8.2279096e-002
  3.6295119e-003 -5.4644036e-002
 -3.9055601e-003 -4.5439604e-002
 -9.5586454e-003 -5.5107444e-002
 -9.0147068e-003 -6.8421562e-002
 -2.6099497e-003 -6.8709535e-002
  5.2762653e-003 -5.1418779e-002
  9.7743741e-003 -2.6626973e-002
  9.0046367e-003 -9.9197828e-003
  4.9844650e-003 -9.9055291e-003
  1.6226913e-003 -2.2309181e-002
  1.6206108e-003 -3.4433550e-002
  4.7739028e-003 -3.5462594e-002
  8.7374887e-003 -2.4149683e-002
  1.1233097e-002 -8.4183417e-003
  1.1797962e-002  1.8998939e-003
  1.1782248e-002  2.8201967e-003
  1.2834669e-002 -1.5925804e-003
  1.5365047e-002 -3.5726121e-003
  1.8345756e-002  1.5985909e-003
  2.0584937e-002  1.2199952e-002
  2.2199126e-002  2.2342313e-002
  2.4889322e-002  2.7512657e-002
  3.0654675e-002  2.8533257e-002
  3.9958245e-002  3.0789331e-002
  5.0869513e-002  3.9582751e-002
  6.0027560e-002  5.5651523e-002
  6.4870271e-002  7.4466523e-002
  6.5565770e-002  8.9796147e-002
  6.5133153e-002  9.8461988e-002
  6.7629878e-002  1.0251297e-001
  7.5636143e-002  1.0730430e-001
  8.8665989e-002  1.1725056e-001
  1.0348257e-001  1.3265424e-001
  1.1592035e-001  1.4986032e-001
  1.2295965e-001  1.6418096e-001
  1.2388222e-001  1.7309812e-001
  1.2005453e-001  1.7723563e-001
  1.1385156e-001  1.7870002e-001
  1.0753447e-001  1.7856931e-001
  1.0256888e-001  1.7573353e-001
  9.9350275e-002  1.6783667e-001
  9.7126855e-002  1.5328564e-001
  9.4052581e-002  1.3246618e-001
  8.7666941e-002  1.0729875e-001
  7.5920980e-002  7.9762024e-002
  5.8454960e-002  5.0838393e-002
  3.7347575e-002  2.0859433e-002
  1.6615864e-002 -9.2361864e-003
  4.6347567e-004 -3.7113287e-002
 -8.8233016e-003 -5.9718210e-002
 -1.1991715e-002 -7.5024017e-002
 -1.2148667e-002 -8.3362276e-002
 -1.2683988e-002 -8.7162906e-002
 -1.5241314e-002 -8.9243231e-002
 -1.9074617e-002 -9.1015258e-002
 -2.2153380e-002 -9.1976862e-002
 -2.3094161e-002 -9.0864189e-002
 -2.2420762e-002 -8.7370223e-002
 -2.2129381e-002 -8.2799007e-002
 -2.3933412e-002 -7.9027215e-002
 -2.7625105e-002 -7.6689286e-002
 -3.0900282e-002 -7.4302408e-002
 -3.0937326e-002 -6.9267278e-002
 -2.6560881e-002 -6.0114937e-002
 -1.9350693e-002 -4.8170121e-002
 -1.2785452e-002 -3.7121240e-002
 -1.0001506e-002 -3.0683028e-002
 -1.1735597e-002 -2.9984999e-002
 -1.5970996e-002 -3.2771031e-002
 -1.9470415e-002 -3.5036931e-002
 -2.0068816e-002 -3.3912164e-002
 -1.7926625e-002 -2.9536118e-002
 -1.4962954e-002 -2.4552211e-002
 -1.3042297e-002 -2.1787577e-002
 -1.2407221e-002 -2.1983629e-002
 -1.1688266e-002 -2.3426724e-002
 -9.4198837e-003 -2.3649760e-002
 -5.7974646e-003 -2.1778088e-002
 -3.0483543e-003 -1.9441380e-002
 -3.9331773e-003 -1.9459986e-002
 -9.3987161e-003 -2.3351105e-002
 -1.7223562e-002 -2.9665890e-002
 -2.2925465e-002 -3.4648821e-002
 -2.2505643e-002 -3.4723718e-002
 -1.5204520e-002 -2.9028376e-002
 -4.2853595e-003 -2.0096315e-002
  4.8030752e-003 -1.2206788e-002
  7.7929193e-003 -8.6125608e-003
  4.1707233e-003 -9.7399175e-003
 -2.7692145e-003 -1.3518262e-002
 -8.3708787e-003 -1.7286283e-002
 -9.7855046e-003 -1.9709491e-002
 -7.6310023e-003 -2.1310535e-002
 -5.0749736e-003 -2.3430135e-002
 -5.2210991e-003 -2.6656706e-002
 -8.7317458e-003 -3.0140627e-002
 -1.3492875e-002 -3.2302910e-002
 -1.6362480e-002 -3.2137254e-002
 -1.5670706e-002 -3.0380824e-002
 -1.2416372e-002 -2.8849997e-002
 -9.4822216e-003 -2.9011294e-002
 -9.4194163e-003 -3.0811336e-002
 -1.2568386e-002 -3.2730188e-002
 -1.6872676e-002 -3.2997789e-002
 -1.9522532e-002 -3.0957388e-002
 -1.9075560e-002 -2.7565884e-002
 -1.6399500e-002 -2.4613235e-002
 -1.3767688e-002 -2.3345732e-002
 -1.2923917e-002 -2.3581017e-002
 -1.3713021e-002 -2.3978055e-002
 -1.4354122e-002 -2.3183565e-002
 -1.3138950e-002 -2.0931364e-002
 -1.0145021e-002 -1.8303238e-002
 -7.4591488e-003 -1.7003313e-002
 -7.6350222e-003 -1.8188771e-002
 -1.1496016e-002 -2.1668605e-002
 -1.7039795e-002 -2.5934132e-002
 -2.0472192e-002 -2.9012214e-002
 -1.8783173e-002 -2.9580335e-002
 -1.1998553e-002 -2.7654765e-002
 -3.4589754e-003 -2.4565217e-002
  2.1465094e-003 -2.2263765e-002
  1.7422532e-003 -2.2287686e-002
 -4.2556366e-003 -2.4899931e-002
 -1.2425917e-002 -2.8889581e-002
 -1.8706329e-002 -3.2210317e-002
 -2.0935062e-002 -3.3161828e-002
 -1.9805969e-002 -3.1391797e-002
 -1.7729872e-002 -2.8019987e-002
 -1.6719871e-002 -2.4810090e-002
 -1.6965173e-002 -2.2848679e-002
 -1.7090536e-002 -2.1785516e-002
 -1.5676084e-002 -2.0271717e-002
 -1.2679337e-002 -1.7422786e-002
 -9.5469846e-003 -1.4094530e-002
 -7.9619596e-003 -1.2699019e-002
 -8.4075976e-003 -1.5434367e-002
 -9.7909833e-003 -2.2122987e-002
 -1.0510918e-002 -2.9521324e-002
 -9.9868242e-003 -3.3009754e-002
 -9.2832828e-003 -2.9806707e-002
 -1.0164409e-002 -2.1380563e-002
 -1.3326537e-002 -1.2958625e-002
 -1.7301747e-002 -1.0071527e-002
 -1.9216724e-002 -1.4532433e-002
 -1.6991484e-002 -2.2940040e-002
 -1.1327580e-002 -2.9053521e-002
 -5.7353161e-003 -2.8459879e-002
 -4.2389554e-003 -2.1824365e-002
 -8.4126551e-003 -1.4093298e-002
 -1.5898031e-002 -1.0048035e-002
 -2.1756372e-002 -9.8039741e-003
 -2.1838152e-002 -8.2405739e-003
 -1.5753918e-002  5.8904158e-004
 -7.1880773e-003  1.7413886e-002
 -1.2191499e-003  3.5236401e-002
 -6.0755735e-004  4.3279113e-002
 -3.8441773e-003  3.5063971e-002
 -6.3826974e-003  1.4594837e-002
 -4.1530857e-003 -4.8589057e-003
  3.3356955e-003 -9.5309291e-003
  1.2676090e-002  4.5389283e-003
  1.9147557e-002  2.7582974e-002
  2.0129202e-002  4.2321848e-002
  1.6597954e-002  3.6254243e-002
  1.1661117e-002  1.0893518e-002
  7.4834445e-003 -1.9386014e-002
  3.4391496e-003 -3.8351669e-002
 -2.8178948e-003 -4.0341316e-002
 -1.2243154e-002 -3.3961943e-002
 -2.2111390e-002 -3.3697526e-002
 -2.7099094e-002 -4.6035715e-002
 -2.3502543e-002 -6.2286935e-002
 -1.3301632e-002 -6.5551895e-002
 -4.1048780e-003 -4.7555694e-002
 -3.8006226e-003 -2.1124238e-002
 -1.2990410e-002 -1.4787863e-002
 -2.1197810e-002 -4.8939852e-002
 -1.1144902e-002 -1.0909274e-001
  2.9790251e-002 -1.3871234e-001
  9.7532690e-002 -6.4347957e-002
  1.6726890e-001  1.5643019e-001
  2.0203550e-001  4.9312307e-001
  1.7094622e-001  8.3729333e-001
  6.7305783e-002  1.0455155e+000
 -8.4179452e-002  1.0110413e+000
 -2.3615261e-001  7.2398661e-001
 -3.3937713e-001  2.8315598e-001
 -3.6454982e-001 -1.5006621e-001
 -3.1379568e-001 -4.3080299e-001
 -2.1639113e-001 -4.9789289e-001
 -1.1246038e-001 -3.9238262e-001
 -3.4229283e-002 -2.2063619e-001
  5.3615109e-003 -8.8365303e-002
  1.2458203e-002 -4.6496858e-002
  3.2772297e-003 -7.8077795e-002
 -6.9037689e-003 -1.2701956e-001
 -1.0323753e-002 -1.4362058e-001
 -6.8978678e-003 -1.1540913e-001
 -1.7346325e-004 -6.6382118e-002
  6.8264923e-003 -3.1432769e-002
  1.3101621e-002 -2.8370614e-002
  1.8622258e-002 -4.7748811e-002
  2.2762026e-002 -6.4793006e-002
  2.4050434e-002 -6.1092365e-002
  2.1426837e-002 -3.8250717e-002
  1.5690396e-002 -1.4075991e-002
  9.6266847e-003 -6.3548613e-003
  6.4539531e-003 -1.8279096e-002
  7.7813634e-003 -3.6804851e-002
  1.2638084e-002 -4.4084972e-002
  1.8293895e-002 -3.1921948e-002
  2.2188254e-002 -7.6042792e-003
  2.3523935e-002  1.2791924e-002
  2.3385618e-002  1.7436162e-002
  2.3550508e-002  7.4795211e-003
  2.5017610e-002 -5.0238976e-003
  2.7383047e-002 -7.4943903e-003
  2.9410756e-002  3.3366091e-003
  3.0236301e-002  1.9968425e-002
  3.0131523e-002  3.1485301e-002
  3.0361566e-002  3.3100888e-002
  3.2340915e-002  2.9897659e-002
  3.6832695e-002  3.2009839e-002
  4.3686727e-002  4.5630970e-002
  5.2137751e-002  6.7538046e-002
  6.1273406e-002  8.7739338e-002
  7.0322734e-002  9.7919282e-002
  7.8701843e-002  9.8563388e-002
  8.6006675e-002  9.8750712e-002
  9.2181433e-002  1.0874144e-001
  9.7698818e-002  1.3134892e-001
  1.0339834e-001  1.5912548e-001
  1.0990478e-001  1.7975248e-001
  1.1695469e-001  1.8537486e-001
  1.2317754e-001  1.7853265e-001
  1.2674056e-001  1.7000012e-001
  1.2650235e-001  1.7019787e-001
  1.2287042e-001  1.8089291e-001
  1.1763381e-001  1.9353201e-001
  1.1270520e-001  1.9539056e-001
  1.0862100e-001  1.7863172e-001
  1.0393587e-001  1.4548280e-001
  9.6087709e-002  1.0593362e-001
  8.3238467e-002  7.0191398e-002
  6.5797674e-002  4.1919130e-002
  4.6524563e-002  1.7281388e-002
  2.9091193e-002 -1.0030370e-002
  1.6080697e-002 -4.2233341e-002
  7.7137928e-003 -7.4766475e-002
  2.2278935e-003 -9.9326551e-002
 -2.5686580e-003 -1.0996649e-001
 -7.7025359e-003 -1.0733398e-001
 -1.2644077e-002 -9.7992030e-002
 -1.6170395e-002 -8.9644291e-002
 -1.7675951e-002 -8.6260933e-002
 -1.7859655e-002 -8.6705249e-002
 -1.8265568e-002 -8.7325793e-002
 -2.0036914e-002 -8.5704617e-002
 -2.2950557e-002 -8.2307172e-002
 -2.5505976e-002 -7.8962494e-002
 -2.6001018e-002 -7.6089825e-002
 -2.3724380e-002 -7.1600285e-002
 -1.9395406e-002 -6.2726813e-002
 -1.4619884e-002 -4.9200352e-002
 -1.0836080e-002 -3.4719560e-002
 -8.5872117e-003 -2.4922039e-002
 -7.5891688e-003 -2.3168525e-002
 -7.3505869e-003 -2.7564357e-002
 -7.7128057e-003 -3.1936446e-002
 -8.8098280e-003 -3.0364855e-002
 -1.0620802e-002 -2.1840073e-002
 -1.2580823e-002 -1.1334568e-002
 -1.3763069e-002 -6.2404305e-003
 -1.3547095e-002 -1.0781293e-002
 -1.2130634e-002 -2.2624537e-002
 -1.0450213e-002 -3.4385508e-002
 -9.4635102e-003 -3.8871193e-002
 -9.4374678e-003 -3.4102648e-002
 -9.8135862e-003 -2.4284730e-002
 -9.8244332e-003 -1.6237195e-002
 -9.3771332e-003 -1.4227134e-002
 -9.3287760e-003 -1.7179108e-002
 -1.0825335e-002 -2.0304052e-002
 -1.4129705e-002 -1.9518440e-002
 -1.7997675e-002 -1.4883886e-002
 -2.0233019e-002 -1.0370470e-002
 -1.9192236e-002 -1.0276573e-002
 -1.5078507e-002 -1.5290947e-002
 -1.0093935e-002 -2.1857228e-002
 -7.0327164e-003 -2.4998939e-002
 -7.4118110e-003 -2.2428507e-002
 -1.0522112e-002 -1.6524234e-002
 -1.4161994e-002 -1.2611304e-002
 -1.6460976e-002 -1.4832219e-002
 -1.7344469e-002 -2.2843815e-002
 -1.8471346e-002 -3.2246705e-002
 -2.1559508e-002 -3.7861520e-002
 -2.6541781e-002 -3.7472677e-002
 -3.1092537e-002 -3.3051399e-002
 -3.2087102e-002 -2.8696262e-002
 -2.8016978e-002 -2.7283830e-002
 -2.0550555e-002 -2.8515694e-002
 -1.3831433e-002 -2.9810423e-002
 -1.1872474e-002 -2.9006135e-002
 -1.5834855e-002 -2.6392130e-002
 -2.3185923e-002 -2.4262930e-002
 -2.9421732e-002 -2.4598388e-002
 -3.1128327e-002 -2.6983950e-002
 -2.8222915e-002 -2.8811713e-002
 -2.3794296e-002 -2.7644725e-002
 -2.1664611e-002 -2.3621018e-002
 -2.3620918e-002 -1.9729894e-002
 -2.8275153e-002 -1.9478962e-002
 -3.2356500e-002 -2.3850710e-002
 -3.3291907e-002 -3.0162535e-002
 -3.1090277e-002 -3.3986264e-002
 -2.8126213e-002 -3.2683173e-002
 -2.7132523e-002 -2.7651393e-002
 -2.9042412e-002 -2.3292364e-002
 -3.2375571e-002 -2.3401401e-002
 -3.4572723e-002 -2.7984158e-002
 -3.4134577e-002 -3.3093177e-002
 -3.1796689e-002 -3.4004530e-002
 -2.9859324e-002 -2.9215088e-002
 -3.0265290e-002 -2.1927891e-002
 -3.3012139e-002 -1.7662342e-002
 -3.6213078e-002 -1.9851401e-002
 -3.7638221e-002 -2.6883931e-002
 -3.6538634e-002 -3.3230141e-002
 -3.4236381e-002 -3.3796478e-002
 -3.2986090e-002 -2.8028423e-002
 -3.4144756e-002 -2.0499248e-002
 -3.7097669e-002 -1.7369377e-002
 -3.9774460e-002 -2.1502492e-002
 -4.0264254e-002 -3.0088167e-002
 -3.8184175e-002 -3.6762514e-002
 -3.4720205e-002 -3.6532704e-002
 -3.1403239e-002 -2.9603347e-002
 -2.8759579e-002 -2.1046080e-002
 -2.6089486e-002 -1.6714100e-002
 -2.2507117e-002 -1.8707114e-002
 -1.8299777e-002 -2.4017480e-002
 -1.5259494e-002 -2.7354371e-002
 -1.5499908e-002 -2.5648821e-002
 -1.9638527e-002 -2.0516938e-002
 -2.5933057e-002 -1.6724597e-002
 -3.1215855e-002 -1.8004873e-002
 -3.3061991e-002 -2.3841187e-002
 -3.1535106e-002 -2.9949979e-002
 -2.9031317e-002 -3.1933064e-002
 -2.8200323e-002 -2.8892068e-002
 -2.9617491e-002 -2.3902111e-002
 -3.1145347e-002 -2.1051512e-002
 -2.9673637e-002 -2.1662726e-002
 -2.3945032e-002 -2.3175182e-002
 -1.6191638e-002 -2.1740347e-002
 -1.1040230e-002 -1.6195311e-002
 -1.2228675e-002 -9.6351004e-003
 -1.9561404e-002 -6.7799932e-003
 -2.8525747e-002 -9.2194286e-003
 -3.3121701e-002 -1.2894980e-002
 -2.9949431e-002 -1.0670577e-002
 -2.0601543e-002  1.4280418e-003
 -1.0483607e-002  1.9481614e-002
 -4.9442309e-003  3.2960404e-002
 -5.5268945e-003  3.2096085e-002
 -9.0721288e-003  1.6062659e-002
 -1.0345534e-002 -4.8565865e-003
 -6.0465471e-003 -1.5725997e-002
  2.8504618e-003 -7.9351334e-003
  1.2104123e-002  1.3647610e-002
  1.7568887e-002  3.3344293e-002
  1.8050316e-002  3.5758031e-002
  1.5447903e-002  1.7113657e-002
  1.2276083e-002 -1.2034566e-002
  8.9593541e-003 -3.5139090e-002
  3.4766037e-003 -4.2606069e-002
 -6.0902642e-003 -3.8777136e-002
 -1.8417356e-002 -3.6961970e-002
 -2.8332128e-002 -4.6422111e-002
 -3.0076106e-002 -6.2546802e-002
 -2.2207729e-002 -6.9733350e-002
 -1.0008208e-002 -5.6118592e-002
 -2.4093164e-003 -2.8163897e-002
 -4.6596071e-003 -1.0685957e-002
 -1.1988788e-002 -2.7896222e-002
 -9.9715174e-003 -7.6749557e-002
  1.6669770e-002 -1.1381172e-001
  7.1364515e-002 -7.1345268e-002
  1.3768601e-001  1.0107997e-001
  1.8299183e-001  3.9337143e-001
  1.7378227e-001  7.2038457e-001
  9.4940453e-002  9.5193648e-001
 -3.8601052e-002  9.7572313e-001
 -1.8562236e-001  7.5866143e-001
 -2.9680233e-001  3.6980882e-001
 -3.3771411e-001 -5.0687591e-002
 -3.0390818e-001 -3.6005923e-001
 -2.2016997e-001 -4.7995097e-001
 -1.2537641e-001 -4.2495706e-001
 -5.2455470e-002 -2.7995456e-001
 -1.4745551e-002 -1.4424340e-001
 -5.1543250e-003 -7.8187027e-002
 -6.2174335e-003 -8.2230947e-002
 -3.1824871e-003 -1.1471734e-001
  8.1354181e-003 -1.3028981e-001
  2.2258038e-002 -1.1091967e-001
  3.0979550e-002 -7.1288493e-002
  3.0376665e-002 -4.0327903e-002
  2.3116275e-002 -3.6397113e-002
  1.5507683e-002 -5.4898824e-002
  1.2539543e-002 -7.5121940e-002
  1.4904654e-002 -7.8142866e-002
  1.9760471e-002 -6.0754179e-002
  2.3879102e-002 -3.5538118e-002
  2.6179292e-002 -1.8984524e-002
  2.7748240e-002 -1.8381389e-002
  2.9813112e-002 -2.7678413e-002
  3.1857926e-002 -3.4352307e-002
  3.1792747e-002 -3.0419000e-002
  2.8025383e-002 -1.8292401e-002
  2.1625923e-002 -7.3056479e-003
  1.6493518e-002 -4.6616642e-003
  1.7044226e-002 -8.9445141e-003
  2.5029749e-002 -1.1547722e-002
  3.7981447e-002 -4.4820116e-003
  5.0562967e-002  1.2333183e-002
  5.7964944e-002  3.0508518e-002
  5.8874319e-002  3.9818727e-002
  5.6026553e-002  3.6577934e-002
  5.4004809e-002  2.6857176e-002
  5.6017979e-002  2.1928561e-002
  6.2081649e-002  2.9615308e-002
  6.9675882e-002  4.8515968e-002
  7.6107327e-002  6.9554392e-002
  8.0591961e-002  8.3467844e-002
  8.4461848e-002  8.8054374e-002
  8.9573312e-002  8.9476521e-002
  9.6456871e-002  9.6735255e-002
  1.0382686e-001  1.1398618e-001
  1.0983449e-001  1.3692383e-001
  1.1390092e-001  1.5608350e-001
  1.1741787e-001  1.6434361e-001
