 -3.4356553e-002 -4.0908133e-002
 -3.5956333e-002 -4.3154197e-002
 -4.4311388e-002 -4.7724497e-002
 -5.3575349e-002 -4.9447833e-002
 -5.7468439e-002 -4.5485205e-002
 -5.3657974e-002 -3.7892513e-002
 -4.5143141e-002 -3.1998928e-002
 -3.7712897e-002 -3.1852988e-002
 -3.5637127e-002 -3.6550549e-002
 -3.8860599e-002 -4.0655230e-002
 -4.3695241e-002 -3.8640286e-002
 -4.6165734e-002 -2.9822768e-002
 -4.5068235e-002 -1.9493672e-002
 -4.2361626e-002 -1.5129875e-002
 -4.0861383e-002 -2.0527935e-002
 -4.1442432e-002 -3.2524273e-002
 -4.2295074e-002 -4.3126770e-002
 -4.0849419e-002 -4.5507862e-002
 -3.6617244e-002 -3.9256082e-002
 -3.2333088e-002 -3.0718473e-002
 -3.2166128e-002 -2.8033955e-002
 -3.8271996e-002 -3.4692396e-002
 -4.8569248e-002 -4.6707932e-002
 -5.7658273e-002 -5.5676078e-002
 -6.0518521e-002 -5.5381968e-002
 -5.6201024e-002 -4.6709202e-002
 -4.8584597e-002 -3.7128763e-002
 -4.3652195e-002 -3.4911694e-002
 -4.5134523e-002 -4.2721069e-002
 -5.1942752e-002 -5.5529290e-002
 -5.9209677e-002 -6.4487440e-002
 -6.2086684e-002 -6.3630926e-002
 -5.9264275e-002 -5.4125931e-002
 -5.3595893e-002 -4.3108214e-002
 -4.9641577e-002 -3.7979177e-002
 -5.0160763e-002 -4.1024313e-002
 -5.4369750e-002 -4.8197872e-002
 -5.9034384e-002 -5.2864775e-002
 -6.1268102e-002 -5.1379307e-002
 -6.0698184e-002 -4.5883376e-002
 -5.9311149e-002 -4.2291703e-002
 -5.9404398e-002 -4.5189147e-002
 -6.1546169e-002 -5.3966072e-002
 -6.4300870e-002 -6.3242894e-002
 -6.5776551e-002 -6.7077843e-002
 -6.5423300e-002 -6.3476384e-002
 -6.4394380e-002 -5.5700280e-002
 -6.4197152e-002 -4.9400603e-002
 -6.4972126e-002 -4.8178496e-002
 -6.5144302e-002 -5.1088617e-002
 -6.2976184e-002 -5.4099446e-002
 -5.8635736e-002 -5.3940839e-002
 -5.4797681e-002 -5.0944099e-002
 -5.4789055e-002 -4.8485200e-002
 -5.9668800e-002 -4.9649664e-002
 -6.6639699e-002 -5.4169050e-002
 -7.0581392e-002 -5.8277245e-002
 -6.7796434e-002 -5.7777072e-002
 -5.9229294e-002 -5.1712499e-002
 -5.0339641e-002 -4.3517330e-002
 -4.7399385e-002 -3.8416555e-002
 -5.2797880e-002 -3.9319065e-002
 -6.2976678e-002 -4.4458210e-002
 -7.0838569e-002 -4.8919792e-002
 -7.0933541e-002 -4.8750762e-002
 -6.3526783e-002 -4.4207343e-002
 -5.4331474e-002 -3.9464357e-002
 -5.0108136e-002 -3.8965990e-002
 -5.3449832e-002 -4.3494652e-002
 -6.0912657e-002 -4.9304526e-002
 -6.5915606e-002 -5.1272584e-002
 -6.4176935e-002 -4.7402226e-002
 -5.7240149e-002 -4.0858029e-002
 -5.1247431e-002 -3.7611197e-002
 -5.1890255e-002 -4.1488108e-002
 -5.9634330e-002 -5.0678537e-002
 -6.9100474e-002 -5.8790023e-002
 -7.3241805e-002 -5.9768485e-002
 -6.9008129e-002 -5.2887208e-002
 -5.9860763e-002 -4.3565205e-002
 -5.3058244e-002 -3.9139809e-002
 -5.3782750e-002 -4.2870380e-002
 -6.0845607e-002 -5.1034782e-002
 -6.7605048e-002 -5.5807063e-002
 -6.7452242e-002 -5.1682136e-002
 -5.9455993e-002 -4.0423116e-002
 -4.9460485e-002 -3.0279751e-002
 -4.5540412e-002 -2.9773650e-002
 -5.1264960e-002 -4.0686722e-002
 -6.2263387e-002 -5.5874592e-002
 -6.9103266e-002 -6.3934960e-002
 -6.4539883e-002 -5.7415277e-002
 -4.9457398e-002 -3.8386162e-002
 -3.2700282e-002 -1.7014646e-002
 -2.4580248e-002 -4.2454696e-003
 -2.8930026e-002 -4.0788428e-003
 -3.9840354e-002 -1.1137876e-002
 -4.5770019e-002 -1.5215133e-002
 -3.7980681e-002 -9.0629482e-003
 -1.7055337e-002  6.5392236e-003
  7.4423082e-003  2.4018804e-002
  2.3713268e-002  3.5016252e-002
  2.5598334e-002  3.6021291e-002
  1.5714782e-002  2.9268841e-002
  1.8737085e-003  1.8881872e-002
 -9.6828882e-003  6.3336795e-003
 -1.8574169e-002 -1.0452090e-002
 -2.8782042e-002 -3.3485772e-002
 -4.3204215e-002 -6.0133352e-002
 -5.9442042e-002 -8.2344473e-002
 -7.0898167e-002 -9.1474130e-002
 -7.2470788e-002 -8.5223173e-002
 -6.5748137e-002 -7.0712292e-002
 -5.8739001e-002 -6.0225765e-002
 -5.9706930e-002 -6.2266014e-002
 -7.0017108e-002 -7.4748712e-002
 -8.2326908e-002 -8.6353859e-002
 -8.6372807e-002 -8.5599724e-002
 -7.8044813e-002 -7.0836349e-002
 -6.3993695e-002 -5.2815652e-002
 -5.6996409e-002 -4.6684637e-002
 -6.4986353e-002 -5.9256780e-002
 -8.2688479e-002 -8.1829100e-002
 -9.3946343e-002 -9.5508958e-002
 -8.4608405e-002 -8.6085690e-002
 -5.6367233e-002 -5.7003386e-002
 -2.9225447e-002 -2.8854598e-002
 -2.7499149e-002 -2.3380175e-002
 -5.7275164e-002 -4.2472541e-002
 -9.2240983e-002 -5.8820316e-002
 -8.1890905e-002 -2.8584804e-002
  1.8381683e-002  7.8993488e-002
  2.1251571e-001  2.5385801e-001
  4.4821850e-001  4.3985655e-001
  6.3481964e-001  5.5905049e-001
  6.8791527e-001  5.5348457e-001
  5.7579832e-001  4.1918514e-001
  3.3939252e-001  2.1075936e-001
  7.2505282e-002  1.2713832e-002
 -1.2658198e-001 -1.0533460e-001
 -2.0370985e-001 -1.2245419e-001
 -1.6973018e-001 -6.9933515e-002
 -8.3903072e-002 -5.1432027e-003
 -1.3271383e-002  2.5510918e-002
  5.3196017e-003  1.0761031e-002
 -2.1550403e-002 -2.7311930e-002
 -5.9333241e-002 -5.5660565e-002
 -7.5050164e-002 -5.5474205e-002
 -5.9382883e-002 -3.2741515e-002
 -2.8131412e-002 -9.3511041e-003
 -5.7450981e-003 -4.0379426e-003
 -5.5875035e-003 -1.8478923e-002
 -2.1587634e-002 -3.7991426e-002
 -3.5693179e-002 -4.4572162e-002
 -3.3343429e-002 -3.1121360e-002
 -1.4322390e-002 -6.0138855e-003
  8.6738874e-003  1.4542318e-002
  2.1268407e-002  1.9275493e-002
  1.8771342e-002  9.7170792e-003
  8.8894935e-003 -2.3862666e-003
  4.5237789e-003 -5.1145388e-003
  1.3202942e-002  4.5879324e-003
  3.1641486e-002  1.9663255e-002
  4.9306226e-002  2.9695630e-002
  5.7409274e-002  2.9735194e-002
  5.5941253e-002  2.4039846e-002
  5.3300911e-002  2.2187929e-002
  5.9312200e-002  3.1163434e-002
  7.7594517e-002  5.0002200e-002
  1.0327393e-001  7.0995613e-002
  1.2744795e-001  8.6050683e-002
  1.4441481e-001  9.2866627e-002
  1.5580455e-001  9.6121257e-002
  1.6857818e-001  1.0319251e-001
  1.8894159e-001  1.1822172e-001
  2.1725414e-001  1.3927944e-001
  2.4788397e-001  1.6059412e-001
  2.7379015e-001  1.7754413e-001
  2.9180800e-001  1.9000444e-001
  3.0439973e-001  2.0144711e-001
  3.1668015e-001  2.1500387e-001
  3.3151450e-001  2.3013393e-001
  3.4674859e-001  2.4281078e-001
  3.5665973e-001  2.4896302e-001
  3.5619137e-001  2.4809866e-001
  3.4432071e-001  2.4374975e-001
  3.2390253e-001  2.4027103e-001
  2.9845917e-001  2.3863766e-001
  2.6900763e-001  2.3495723e-001
  2.3379173e-001  2.2317234e-001
  1.9119100e-001  1.9990916e-001
  1.4316915e-001  1.6757100e-001
  9.6026668e-002  1.3314867e-001
  5.7414456e-002  1.0363157e-001
  3.1612584e-002  8.1550090e-002
  1.6751576e-002  6.4197866e-002
  6.2570593e-003  4.6938920e-002
 -6.4998002e-003  2.7824503e-002
 -2.3762595e-002  9.5158425e-003
 -4.2376711e-002 -2.9981279e-003
 -5.6795437e-002 -6.9984582e-003
 -6.3564319e-002 -4.9567710e-003
 -6.3786962e-002 -3.2910919e-003
 -6.1953587e-002 -7.6923852e-003
 -6.2281498e-002 -1.8689714e-002
 -6.5673929e-002 -3.1070545e-002
 -6.9611253e-002 -3.7761934e-002
 -7.0757279e-002 -3.5171778e-002
 -6.7947013e-002 -2.5853284e-002
 -6.3087793e-002 -1.6447322e-002
 -5.9370037e-002 -1.2647988e-002
 -5.8536669e-002 -1.5148463e-002
 -5.9602272e-002 -1.9691498e-002
 -6.0008109e-002 -2.0941415e-002
 -5.8090443e-002 -1.6977345e-002
 -5.4621787e-002 -1.0705256e-002
 -5.2044057e-002 -7.1321307e-003
 -5.2077436e-002 -8.8733104e-003
 -5.3866872e-002 -1.3710851e-002
 -5.4465701e-002 -1.6281776e-002
 -5.1342837e-002 -1.2538198e-002
 -4.4863667e-002 -3.2993330e-003
 -3.8527958e-002  6.0153596e-003
 -3.6579047e-002  9.3680426e-003
 -4.0767037e-002  4.6522722e-003
 -4.8859126e-002 -4.6737866e-003
 -5.6113951e-002 -1.2298867e-002
 -5.8663299e-002 -1.3850233e-002
 -5.6227944e-002 -1.0078065e-002
 -5.2022740e-002 -5.9515895e-003
 -5.0070446e-002 -6.5431963e-003
 -5.2102526e-002 -1.3011260e-002
 -5.6546213e-002 -2.1997436e-002
 -6.0253386e-002 -2.8554224e-002
 -6.1404659e-002 -3.0172729e-002
 -6.1071162e-002 -2.8557094e-002
 -6.2072304e-002 -2.7685163e-002
 -6.6202985e-002 -3.0068257e-002
 -7.2227553e-002 -3.4385977e-002
 -7.6538187e-002 -3.6657471e-002
 -7.6013450e-002 -3.3886759e-002
 -7.0777438e-002 -2.7028638e-002
 -6.4454030e-002 -2.0738450e-002
 -6.1580427e-002 -1.9891315e-002
 -6.4171970e-002 -2.5637235e-002
 -7.0140484e-002 -3.4281867e-002
 -7.4950723e-002 -4.0007238e-002
 -7.5221310e-002 -3.9349904e-002
 -7.1373841e-002 -3.3804408e-002
 -6.7252201e-002 -2.8466374e-002
 -6.6940454e-002 -2.7860009e-002
 -7.1427641e-002 -3.2323214e-002
 -7.7756099e-002 -3.7904595e-002
 -8.1346220e-002 -3.9777373e-002
 -7.9639039e-002 -3.6355501e-002
 -7.4105053e-002 -3.0657165e-002
 -6.9027030e-002 -2.7821270e-002
 -6.8127006e-002 -3.0754192e-002
 -7.1743575e-002 -3.7560618e-002
 -7.6770130e-002 -4.3018427e-002
 -7.9359658e-002 -4.2800844e-002
 -7.8043272e-002 -3.7106062e-002
 -7.4693274e-002 -3.0547434e-002
 -7.2631314e-002 -2.8317665e-002
 -7.3592204e-002 -3.1827150e-002
 -7.6142984e-002 -3.7447266e-002
 -7.7006139e-002 -3.9506438e-002
 -7.4070857e-002 -3.5189489e-002
 -6.8485958e-002 -2.7119271e-002
 -6.3921621e-002 -2.1444122e-002
 -6.3588501e-002 -2.2839155e-002
 -6.7518143e-002 -3.0525198e-002
 -7.2532272e-002 -3.8672672e-002
 -7.4898651e-002 -4.0987127e-002
 -7.3528006e-002 -3.5897245e-002
 -7.0838735e-002 -2.8020893e-002
 -7.0493876e-002 -2.4550026e-002
 -7.3891358e-002 -2.9366719e-002
 -7.8526456e-002 -3.9713681e-002
 -7.9927787e-002 -4.8293284e-002
 -7.5717376e-002 -4.9182657e-002
 -6.8273681e-002 -4.2817545e-002
 -6.3421163e-002 -3.5811740e-002
 -6.5752793e-002 -3.5543540e-002
 -7.4278473e-002 -4.3677812e-002
 -8.2264965e-002 -5.4037395e-002
 -8.1998239e-002 -5.6802692e-002
 -7.1026586e-002 -4.6053249e-002
 -5.4892258e-002 -2.4741519e-002
 -4.3603123e-002 -2.9827568e-003
 -4.4054218e-002  9.2016582e-003
 -5.4106313e-002  9.3123126e-003
 -6.3262463e-002  4.0071936e-003
 -5.9954093e-002  3.9234006e-003
 -4.0312825e-002  1.5397282e-002
 -1.1772302e-002  3.5568906e-002
  1.1564875e-002  5.4479088e-002
  1.8584786e-002  6.2342763e-002
  8.6799881e-003  5.6124641e-002
 -8.5622765e-003  4.0450586e-002
 -2.1218708e-002  2.2696578e-002
 -2.4284273e-002  6.7807473e-003
 -2.3050448e-002 -8.9656680e-003
 -2.7968697e-002 -2.8310925e-002
 -4.5200915e-002 -5.1430290e-002
 -7.0524883e-002 -7.2578833e-002
 -9.1799598e-002 -8.3864124e-002
 -9.8231160e-002 -8.2174062e-002
 -8.9107468e-002 -7.3107864e-002
 -7.4705437e-002 -6.7679244e-002
 -6.8320725e-002 -7.3647860e-002
 -7.5646450e-002 -8.8413487e-002
 -9.0115348e-002 -9.9944375e-002
 -9.8383510e-002 -9.6059605e-002
 -9.1769577e-002 -7.5238150e-002
 -7.4315113e-002 -4.9834668e-002
 -6.0292310e-002 -3.7926357e-002
 -6.2486437e-002 -4.9121699e-002
 -8.0567753e-002 -7.5518124e-002
 -9.9750363e-002 -9.6107707e-002
 -1.0215384e-001 -9.2512912e-002
 -8.2596882e-002 -6.4476245e-002
 -5.5464301e-002 -3.1748547e-002
 -4.4820055e-002 -1.8655462e-002
 -6.2808061e-002 -3.1286290e-002
 -9.2222178e-002 -4.5039285e-002
 -8.8964856e-002 -1.5134739e-002
 -7.4464833e-003  9.3201002e-002
  1.6514378e-001  2.7401110e-001
  3.8879225e-001  4.7169013e-001
  5.8150727e-001  6.0400694e-001
  6.5862727e-001  6.0593213e-001
  5.7892839e-001  4.6809247e-001
  3.6955705e-001  2.4516525e-001
  1.1374852e-001  2.7659303e-002
 -9.2189108e-002 -1.0626796e-001
 -1.8721308e-001 -1.2974961e-001
 -1.7125162e-001 -7.4347488e-002
 -9.5191471e-002 -3.3132718e-003
 -2.4470908e-002  2.9613316e-002
 -6.3967920e-004  9.4222790e-003
 -2.3787762e-002 -3.9452092e-002
 -6.3106688e-002 -7.7278955e-002
 -8.4267768e-002 -7.8864121e-002
 -7.3230280e-002 -4.8472938e-002
 -4.1711027e-002 -1.2050830e-002
 -1.3792174e-002  4.5869619e-003
 -6.3214768e-003 -5.7252183e-003
 -1.7857926e-002 -2.8946695e-002
 -3.2780251e-002 -4.3055738e-002
 -3.5323128e-002 -3.5509930e-002
 -2.1736797e-002 -1.1625363e-002
 -1.6424036e-003  1.1389265e-002
  1.1145179e-002  1.8688871e-002
  1.0139743e-002  8.9086718e-003
  9.0711419e-004 -6.0273887e-003
 -4.1413495e-003 -1.1117044e-002
  4.0136972e-003  5.3198930e-005
  2.4055449e-002  2.1181825e-002
  4.5883304e-002  3.9033550e-002
  5.8941545e-002  4.4079376e-002
  6.0494552e-002  3.7519140e-002
  5.7451900e-002  2.9666894e-002
  6.0662354e-002  3.1646610e-002
  7.6481133e-002  4.7171841e-002
  1.0224126e-001  7.0568739e-002
  1.2886045e-001  9.1851802e-002
  1.4820663e-001  1.0442033e-001
  1.5930057e-001  1.0940721e-001
  1.6871285e-001  1.1386444e-001
  1.8509436e-001  1.2476347e-001
  2.1228166e-001  1.4385030e-001
  2.4627998e-001  1.6706174e-001
  2.7818569e-001  1.8834701e-001
  3.0060523e-001  2.0429790e-001
  3.1251556e-001  2.1591227e-001
  3.1914054e-001  2.2661048e-001
  3.2720233e-001  2.3858792e-001
  3.3934796e-001  2.5074306e-001
  3.5191512e-001  2.5971142e-001
  3.5741712e-001  2.6280617e-001
  3.4963432e-001  2.6010504e-001
  3.2749367e-001  2.5383727e-001
  2.9511546e-001  2.4566767e-001
  2.5848865e-001  2.3447364e-001
  2.2161144e-001  2.1668620e-001
  1.8496734e-001  1.8917477e-001
  1.4708964e-001  1.5250819e-001
  1.0752594e-001  1.1188323e-001
  6.8653694e-002  7.4910066e-002
  3.4869344e-002  4.7585963e-002
  9.8658569e-003  3.1169858e-002
 -5.8190391e-003  2.2144877e-002
 -1.5100296e-002  1.4895947e-002
 -2.2369386e-002  5.2607853e-003
 -3.0752054e-002 -7.4753927e-003
 -4.0577105e-002 -2.1103393e-002
 -4.9874248e-002 -3.2580923e-002
 -5.6352872e-002 -4.0118540e-002
 -5.9180315e-002 -4.3892174e-002
 -5.9342451e-002 -4.5355207e-002
 -5.8690498e-002 -4.5941481e-002
 -5.8504632e-002 -4.6288596e-002
 -5.8862281e-002 -4.6267122e-002
 -5.9097544e-002 -4.5460360e-002
 -5.8705255e-002 -4.3510464e-002
 -5.7856115e-002 -4.0257903e-002
 -5.7085296e-002 -3.5787794e-002
 -5.6518485e-002 -3.0567888e-002
 -5.5486090e-002 -2.5556431e-002
 -5.2953589e-002 -2.2021573e-002
 -4.8542682e-002 -2.0957513e-002
 -4.3235454e-002 -2.2378510e-002
 -3.9041507e-002 -2.5028680e-002
 -3.7726053e-002 -2.6982161e-002
 -3.9523102e-002 -2.6831478e-002
 -4.2761965e-002 -2.4547416e-002
 -4.4840097e-002 -2.1448776e-002
 -4.3977703e-002 -1.9191671e-002
 -4.0515306e-002 -1.8633801e-002
 -3.6796984e-002 -1.9348395e-002
 -3.5671381e-002 -2.0226528e-002
 -3.8558104e-002 -2.0570429e-002
 -4.4431434e-002 -2.0753731e-002
 -5.0446835e-002 -2.1856620e-002
 -5.3736985e-002 -2.4508814e-002
 -5.3161078e-002 -2.8032385e-002
 -4.9871475e-002 -3.0730122e-002
 -4.6339959e-002 -3.1104188e-002
 -4.4570210e-002 -2.9129189e-002
 -4.4877480e-002 -2.6491698e-002
 -4.6015426e-002 -2.5483600e-002
 -4.6462713e-002 -2.7326447e-002
 -4.5836226e-002 -3.1188876e-002
 -4.5276627e-002 -3.4749278e-002
 -4.6537118e-002 -3.5841638e-002
 -5.0426280e-002 -3.4004794e-002
 -5.5851781e-002 -3.0800154e-002
 -6.0374782e-002 -2.8624040e-002
 -6.1867222e-002 -2.9109253e-002
 -6.0124202e-002 -3.1989888e-002
 -5.7067111e-002 -3.5421060e-002
 -5.5519296e-002 -3.7474570e-002
 -5.7262837e-002 -3.7522883e-002
 -6.1874254e-002 -3.6571581e-002
 -6.7093856e-002 -3.6332446e-002
 -7.0431796e-002 -3.7802806e-002
 -7.0765810e-002 -4.0528673e-002
 -6.8803902e-002 -4.2943509e-002
 -6.6169815e-002 -4.3488066e-002
 -6.3973971e-002 -4.1650367e-002
 -6.2130072e-002 -3.8352084e-002
 -5.9927129e-002 -3.5382958e-002
 -5.7250774e-002 -3.4376610e-002
 -5.5216486e-002 -3.6037370e-002
 -5.5530078e-002 -3.9953472e-002
 -5.8914407e-002 -4.4914038e-002
 -6.3950825e-002 -4.9340351e-002
 -6.7516422e-002 -5.1870653e-002
 -6.6827194e-002 -5.1760466e-002
 -6.1617047e-002 -4.9132190e-002
 -5.4729405e-002 -4.4934739e-002
 -5.0426007e-002 -4.0629357e-002
 -5.1471267e-002 -3.7668673e-002
 -5.7136345e-002 -3.6909756e-002
 -6.3617354e-002 -3.8322891e-002
 -6.6710444e-002 -4.1187843e-002
 -6.4782463e-002 -4.4539530e-002
 -5.9823982e-002 -4.7586250e-002
 -5.5794055e-002 -4.9754240e-002
 -5.5506475e-002 -5.0598538e-002
 -5.8543300e-002 -4.9846929e-002
 -6.1784897e-002 -4.7636141e-002
 -6.2102596e-002 -4.4839553e-002
 -5.9010581e-002 -4.2968500e-002
 -5.5121877e-002 -4.3501240e-002
 -5.4034728e-002 -4.6880740e-002
 -5.7246604e-002 -5.1872935e-002
 -6.2735333e-002 -5.6029979e-002
 -6.6453731e-002 -5.7191974e-002
 -6.5576009e-002 -5.4928601e-002
 -6.0867354e-002 -5.0965481e-002
 -5.6214488e-002 -4.8081705e-002
 -5.5568743e-002 -4.8253357e-002
 -5.9660457e-002 -5.1235013e-002
 -6.5193694e-002 -5.4849366e-002
 -6.7328303e-002 -5.6592486e-002
 -6.3573146e-002 -5.5525979e-002
 -5.5976734e-002 -5.2656273e-002
 -4.9696559e-002 -4.9742862e-002
 -4.9092821e-002 -4.7664032e-002
 -5.4350960e-002 -4.5782828e-002
 -6.1370946e-002 -4.2960166e-002
 -6.4991594e-002 -3.9313011e-002
 -6.3022731e-002 -3.6919668e-002
 -5.7857032e-002 -3.8606605e-002
 -5.4357069e-002 -4.5359658e-002
 -5.5739861e-002 -5.4643583e-002
 -6.0888252e-002 -6.1304417e-002
 -6.5271798e-002 -6.0967648e-002
 -6.4807183e-002 -5.3486609e-002
 -5.9407412e-002 -4.3686981e-002
 -5.3225186e-002 -3.8340032e-002
 -5.1314456e-002 -4.1390547e-002
 -5.5430422e-002 -5.0864177e-002
 -6.2432420e-002 -6.0014192e-002
 -6.6784935e-002 -6.2177354e-002
 -6.5159929e-002 -5.5792900e-002
 -5.9308328e-002 -4.5699407e-002
 -5.4636708e-002 -3.9518450e-002
 -5.5580024e-002 -4.1807395e-002
 -6.1525653e-002 -5.0402997e-002
 -6.6905469e-002 -5.7833887e-002
 -6.5615500e-002 -5.6864317e-002
 -5.6282441e-002 -4.5909440e-002
 -4.3934220e-002 -3.0141779e-002
 -3.6274765e-002 -1.7413001e-002
 -3.7317150e-002 -1.2162608e-002
 -4.3478703e-002 -1.2169374e-002
 -4.5698663e-002 -1.0692623e-002
 -3.6348677e-002 -2.1694776e-003
 -1.5672578e-002  1.3074286e-002
  7.4640146e-003  2.8851988e-002
  2.1466286e-002  3.7723997e-002
  2.0252138e-002  3.6349389e-002
  7.4252423e-003  2.7152395e-002
 -6.9379189e-003  1.5146575e-002
 -1.4473325e-002  2.9021517e-003
 -1.5124215e-002 -1.1580816e-002
 -1.6736608e-002 -3.2003928e-002
 -2.7868062e-002 -5.8342851e-002
 -4.9631691e-002 -8.4055580e-002
 -7.3469289e-002 -9.9220938e-002
 -8.7097201e-002 -9.7900755e-002
 -8.4183680e-002 -8.3942515e-002
 -6.9907282e-002 -6.9677960e-002
 -5.7508779e-002 -6.7450138e-002
 -5.8075540e-002 -8.0012058e-002
 -7.1625006e-002 -9.7651641e-002
 -8.6905732e-002 -1.0517884e-001
 -9.0570220e-002 -9.4152748e-002
 -7.8553719e-002 -7.0672859e-002
 -6.0212414e-002 -5.1879591e-002
 -5.1208624e-002 -5.2834218e-002
 -6.0358684e-002 -7.3648029e-002
 -8.1230783e-002 -9.7646176e-002
 -9.6242802e-002 -1.0342610e-001
 -9.1135538e-002 -8.2441830e-002
 -6.8259158e-002 -4.7772704e-002
 -4.6600880e-002 -2.5202949e-002
 -4.5916973e-002 -3.1106167e-002
 -6.5584424e-002 -5.3233883e-002
 -7.5413228e-002 -5.1092480e-002
 -2.9256303e-002  2.0055895e-002
  1.0364359e-001  1.7500420e-001
  3.0934476e-001  3.7775813e-001
  5.2365073e-001  5.5126131e-001
  6.5867416e-001  6.1584484e-001
  6.4862521e-001  5.3438598e-001
  4.8792265e-001  3.3606104e-001
  2.3753553e-001  1.0264480e-001
 -5.5496583e-003 -7.5122727e-002
 -1.5807960e-001 -1.4478409e-001
 -1.9014011e-001 -1.1481889e-001
 -1.3237669e-001 -4.0723623e-002
 -4.9438302e-002  1.3960573e-002
  1.3236846e-003  1.5461687e-002
 -4.0403423e-004 -2.6514772e-002
 -3.5650758e-002 -7.4515148e-002
 -6.8187852e-002 -9.3934883e-002
 -7.2697183e-002 -7.6354778e-002
 -4.9741056e-002 -4.0985830e-002
 -1.9968639e-002 -1.6506132e-002
 -5.2309283e-003 -1.8772048e-002
 -1.2153049e-002 -4.0854517e-002
 -2.9599510e-002 -6.1099892e-002
 -3.9752470e-002 -6.1034661e-002
 -3.2669485e-002 -3.8919978e-002
 -1.2893445e-002 -9.4007289e-003
  5.8856253e-003  8.8753539e-003
  1.2618177e-002  7.4057519e-003
  7.3346113e-003 -7.0804488e-003
  3.4562696e-005 -1.9354212e-002
  1.7876987e-003 -1.7990664e-002
  1.5780256e-002 -3.3070330e-003
  3.5372966e-002  1.4517957e-002
  5.0236001e-002  2.4669539e-002
  5.5053679e-002  2.4295114e-002
  5.3727496e-002  1.9949133e-002
  5.5953798e-002  2.1426781e-002
  6.9272684e-002  3.3565479e-002
  9.3116487e-002  5.2729094e-002
  1.1944510e-001  7.0437870e-002
  1.3931253e-001  8.0690602e-002
  1.4988087e-001  8.4821171e-002
  1.5645055e-001  8.9986039e-002
  1.6809108e-001  1.0301831e-001
  1.9053096e-001  1.2475154e-001
  2.2185892e-001  1.4946949e-001
  2.5414850e-001  1.6959254e-001
  2.7941371e-001  1.8170031e-001
  2.9511693e-001  1.8888598e-001
  3.0512172e-001  1.9770048e-001
  3.1569223e-001  2.1234636e-001
  3.2994368e-001  2.3096434e-001
  3.4515777e-001  2.4694108e-001
  3.5475843e-001  2.5404963e-001
  3.5305275e-001  2.5109899e-001
  3.3889224e-001  2.4241093e-001
  3.1561377e-001  2.3387550e-001
  2.8774790e-001  2.2779872e-001
  2.5742990e-001  2.2079513e-001
  2.2359723e-001  2.0649204e-001
  1.8432885e-001  1.8079305e-001
  1.4021230e-001  1.4556479e-001
  9.5679566e-002  1.0785041e-001
  5.7009385e-002  7.5270070e-002
  2.8551328e-002  5.1325716e-002
  1.0095982e-002  3.3967989e-002
 -2.5705490e-003  1.8378434e-002
 -1.4347613e-002  1.4404423e-003
 -2.7337256e-002 -1.5643484e-002
 -3.9853625e-002 -2.8735250e-002
 -4.8479047e-002 -3.4620118e-002
 -5.1407087e-002 -3.4217650e-002
 -5.0269419e-002 -3.2301538e-002
 -4.9086979e-002 -3.4068450e-002
 -5.1224433e-002 -4.1204905e-002
 -5.6860192e-002 -5.0609710e-002
 -6.2988682e-002 -5.6788225e-002
 -6.5901700e-002 -5.6069589e-002
 -6.4183142e-002 -4.9332334e-002
 -5.9769306e-002 -4.1233456e-002
 -5.6312228e-002 -3.6688080e-002
 -5.6248816e-002 -3.7338257e-002
 -5.8841117e-002 -4.0795003e-002
 -6.0825441e-002 -4.2826005e-002
 -5.9079338e-002 -4.0787547e-002
 -5.3204936e-002 -3.5566511e-002
 -4.6068430e-002 -3.0635294e-002
 -4.1775884e-002 -2.9140794e-002
 -4.2661377e-002 -3.1403171e-002
 -4.7567613e-002 -3.4800403e-002
 -5.2746849e-002 -3.6047636e-002
 -5.4679210e-002 -3.3847188e-002
 -5.2627556e-002 -2.9775012e-002
 -4.9036838e-002 -2.6819936e-002
 -4.7533071e-002 -2.6777939e-002
 -5.0059535e-002 -2.8737672e-002
 -5.5350160e-002 -2.9796967e-002
 -5.9848478e-002 -2.7601420e-002
 -6.0371146e-002 -2.2463607e-002
 -5.6498293e-002 -1.7402088e-002
 -5.0852741e-002 -1.5949056e-002
 -4.7198395e-002 -1.9476017e-002
 -4.7767739e-002 -2.6148312e-002
 -5.1850485e-002 -3.2321162e-002
 -5.6556660e-002 -3.5287431e-002
 -5.9094672e-002 -3.5260349e-002
 -5.8752082e-002 -3.5026723e-002
 -5.7139284e-002 -3.7508659e-002
 -5.6617583e-002 -4.3226228e-002
 -5.8280555e-002 -4.9648050e-002
 -6.1163761e-002 -5.3094938e-002
 -6.3233277e-002 -5.1689478e-002
 -6.3292894e-002 -4.7038978e-002
 -6.2134395e-002 -4.3296626e-002
 -6.1985379e-002 -4.4160453e-002
 -6.4561267e-002 -5.0079888e-002
 -6.9341788e-002 -5.7724296e-002
 -7.3555108e-002 -6.2316075e-002
 -7.4084846e-002 -6.1071659e-002
 -6.9890787e-002 -5.5226971e-002
 -6.3102928e-002 -4.9164824e-002
 -5.7776449e-002 -4.7234200e-002
 -5.7161217e-002 -5.0643765e-002
 -6.1421328e-002 -5.6706956e-002
 -6.7521136e-002 -6.0864374e-002
 -7.1367257e-002 -5.9995471e-002
 -7.0721625e-002 -5.4603760e-002
 -6.6720390e-002 -4.8257533e-002
 -6.2877861e-002 -4.4895846e-002
 -6.2397861e-002 -4.6064573e-002
 -6.5858635e-002 -5.0190620e-002
 -7.0937458e-002 -5.4128576e-002
 -7.4347622e-002 -5.5725971e-002
 -7.4352127e-002 -5.5219145e-002
 -7.1939531e-002 -5.4553705e-002
 -6.9760441e-002 -5.5336173e-002
 -6.9799042e-002 -5.7245655e-002
 -7.1678062e-002 -5.8387082e-002
 -7.3017573e-002 -5.7180933e-002
 -7.1554651e-002 -5.4162842e-002
 -6.7312066e-002 -5.1945499e-002
 -6.2908806e-002 -5.3220925e-002
 -6.1756213e-002 -5.8416255e-002
 -6.5412529e-002 -6.4873475e-002
 -7.2179463e-002 -6.8620317e-002
 -7.8099320e-002 -6.7354850e-002
 -7.9718915e-002 -6.2398876e-002
 -7.6510188e-002 -5.7893456e-002
 -7.1162697e-002 -5.7645251e-002
 -6.7539044e-002 -6.2050975e-002
 -6.7884728e-002 -6.7641076e-002
 -7.1382207e-002 -6.9646992e-002
 -7.5017655e-002 -6.5736112e-002
 -7.5998927e-002 -5.8043034e-002
 -7.3766790e-002 -5.1767912e-002
 -7.0185073e-002 -5.1320214e-002
 -6.7840834e-002 -5.6905902e-002
 -6.7991093e-002 -6.4350279e-002
 -6.9789811e-002 -6.8292743e-002
 -7.1279033e-002 -6.6263406e-002
 -7.1137061e-002 -6.0464952e-002
 -6.9700412e-002 -5.5907918e-002
 -6.8499026e-002 -5.6291329e-002
 -6.8817583e-002 -6.1061225e-002
 -7.0578488e-002 -6.5859976e-002
 -7.2606353e-002 -6.6249398e-002
 -7.3826647e-002 -6.1575862e-002
 -7.4266983e-002 -5.5634562e-002
 -7.4866603e-002 -5.3496086e-002
 -7.6219966e-002 -5.7109446e-002
 -7.7583264e-002 -6.3404513e-002
 -7.7272846e-002 -6.6606687e-002
 -7.4226350e-002 -6.3071869e-002
 -6.9415840e-002 -5.4672680e-002
 -6.5621340e-002 -4.7792098e-002
 -6.5426827e-002 -4.8283642e-002
 -6.8948582e-002 -5.6413386e-002
 -7.3306747e-002 -6.6006579e-002
 -7.4655256e-002 -6.8917126e-002
 -7.1379254e-002 -6.1554607e-002
 -6.5801797e-002 -4.8290639e-002
 -6.2733842e-002 -3.8746385e-002
 -6.5660516e-002 -4.0587519e-002
 -7.3469165e-002 -5.3231749e-002
 -8.0557456e-002 -6.7465835e-002
 -8.0689882e-002 -7.1673172e-002
 -7.1880449e-002 -6.0239103e-002
 -5.8416404e-002 -3.7781190e-002
 -4.8084238e-002 -1.5918468e-002
 -4.6318666e-002 -4.9900992e-003
 -5.1723004e-002 -6.8028162e-003
 -5.6589165e-002 -1.3899681e-002
 -5.2390879e-002 -1.5671804e-002
 -3.6340745e-002 -6.4939551e-003
 -1.4004201e-002  1.0324034e-002
  4.1693449e-003  2.5565224e-002
  9.9155222e-003  3.1346984e-002
  2.5845133e-003  2.6538864e-002
 -1.1221522e-002  1.6146134e-002
 -2.3212745e-002  5.6963328e-003
 -2.9784512e-002 -4.1683934e-003
 -3.3970196e-002 -1.7959650e-002
 -4.1667652e-002 -4.0073114e-002
 -5.5443336e-002 -6.8600374e-002
 -7.1361108e-002 -9.4182884e-002
 -8.1713832e-002 -1.0569420e-001
 -8.1585407e-002 -9.8832710e-002
 -7.3570680e-002 -8.0460919e-002
 -6.6297862e-002 -6.4540192e-002
 -6.7516398e-002 -6.2093246e-002
 -7.7370298e-002 -7.3040188e-002
 -8.7822738e-002 -8.6521944e-002
 -8.9323465e-002 -9.0001550e-002
 -7.9558208e-002 -8.0038971e-002
 -6.6682443e-002 -6.5713998e-002
 -6.3396542e-002 -6.1245456e-002
 -7.5878064e-002 -7.3302261e-002
 -9.6738029e-002 -9.3646264e-002
 -1.0903496e-001 -1.0421249e-001
 -9.9725941e-002 -9.1917456e-002
 -7.2284298e-002 -6.1388139e-002
 -4.6985237e-002 -3.3947186e-002
 -4.5646503e-002 -3.0995946e-002
 -7.0239467e-002 -5.2735577e-002
 -9.1969901e-002 -6.9431769e-002
 -6.2746517e-002 -3.5405092e-002
  5.4119446e-002  7.9913088e-002
  2.5239000e-001  2.6380770e-001
  4.7307311e-001  4.5598270e-001
  6.2711595e-001  5.7511030e-001
  6.4067882e-001  5.6264905e-001
  4.9706442e-001  4.1754251e-001
  2.4924975e-001  1.9941677e-001
 -5.9550463e-003 -2.7961652e-003
 -1.7750997e-001 -1.1811581e-001
 -2.2443252e-001 -1.2808092e-001
 -1.6954231e-001 -6.8850675e-002
 -7.7122000e-002 -2.3011266e-003
 -1.1057346e-002  2.3506094e-002
 -3.5318984e-004 -7.6351812e-004
 -3.1350433e-002 -4.8656211e-002
 -6.7114504e-002 -8.2748603e-002
 -7.7187842e-002 -8.1941318e-002
 -5.6809196e-002 -5.2900934e-002
 -2.4774812e-002 -2.0472677e-002
 -5.1854337e-003 -7.0827444e-003
 -8.5845209e-003 -1.7239789e-002
 -2.6117563e-002 -3.7394588e-002
 -3.8955372e-002 -4.8895613e-002
 -3.3971527e-002 -4.2787607e-002
 -1.3140824e-002 -2.5152910e-002
  9.6717205e-003 -1.0219457e-002
  2.0608145e-002 -8.0887199e-003
  1.6478947e-002 -1.7073133e-002
  6.1115543e-003 -2.6170283e-002
  2.3459718e-003 -2.4651909e-002
  1.1781250e-002 -1.0623586e-002
  3.0409006e-002  8.0847401e-003
  4.7932662e-002  2.0738262e-002
  5.6600776e-002  2.2257479e-002
  5.7241745e-002  1.6717460e-002
  5.7951494e-002  1.3439942e-002
  6.7055024e-002  1.9362510e-002
  8.6378538e-002  3.4014342e-002
  1.1023804e-001  5.0832350e-002
  1.3059637e-001  6.3146362e-002
  1.4385109e-001  6.9690931e-002
  1.5373043e-001  7.5184086e-002
  1.6806418e-001  8.5953808e-002
  1.9223446e-001  1.0443428e-001
  2.2463440e-001  1.2715342e-001
  2.5766765e-001  1.4769381e-001
  2.8339813e-001  1.6188642e-001
  2.9928180e-001  1.7082152e-001
  3.0955861e-001  1.7936006e-001
  3.2138623e-001  1.9154788e-001
  3.3887245e-001  2.0704759e-001
  3.5953024e-001  2.2137884e-001
  3.7564376e-001  2.2973945e-001
  3.7923033e-001  2.3098221e-001
  3.6683198e-001  2.2832085e-001
  3.4079289e-001  2.2609768e-001
  3.0675141e-001  2.2532749e-001
  2.6971692e-001  2.2196106e-001
  2.3181996e-001  2.0946181e-001
  1.9299596e-001  1.8392629e-001
  1.5329858e-001  1.4765465e-001
  1.1449030e-001  1.0836626e-001
  7.9501009e-002  7.4505351e-002
  5.0459843e-002  5.0138843e-002
  2.7147114e-002  3.3189049e-002
  7.3938567e-003  1.8190997e-002
 -1.0899359e-002  1.1941826e-003
 -2.7916282e-002 -1.7084267e-002
 -4.1839071e-002 -3.2156454e-002
 -5.0624471e-002 -3.9795538e-002
 -5.4101112e-002 -3.9755947e-002
 -5.4554930e-002 -3.6242006e-002
 -5.5285508e-002 -3.4794271e-002
 -5.8263054e-002 -3.8191932e-002
 -6.2807432e-002 -4.4572512e-002
 -6.6324266e-002 -4.9215821e-002
 -6.6493447e-002 -4.8479055e-002
 -6.3144998e-002 -4.2732705e-002
 -5.8366350e-002 -3.5866216e-002
 -5.4783724e-002 -3.2045859e-002
 -5.3570826e-002 -3.2390791e-002
 -5.3854765e-002 -3.4277316e-002
 -5.3843012e-002 -3.3799682e-002
 -5.2568629e-002 -2.9195556e-002
 -5.0744365e-002 -2.2448085e-002
 -4.9884664e-002 -1.7776505e-002
 -5.0578635e-002 -1.8148718e-002
 -5.1538994e-002 -2.2755355e-002
 -5.0406641e-002 -2.7479807e-002
 -4.5808503e-002 -2.8087905e-002
 -3.8935195e-002 -2.3614635e-002
 -3.3157915e-002 -1.7269716e-002
 -3.1754068e-002 -1.4095712e-002
 -3.5383996e-002 -1.7094544e-002
 -4.1283580e-002 -2.4788037e-002
 -4.5038138e-002 -3.2169017e-002
 -4.3735569e-002 -3.4343840e-002
 -3.8226615e-002 -3.0117850e-002
 -3.2693350e-002 -2.2869199e-002
 -3.1734610e-002 -1.8078263e-002
 -3.7047168e-002 -1.9412684e-002
 -4.6111382e-002 -2.6245403e-002
 -5.3837308e-002 -3.4319419e-002
 -5.6051579e-002 -3.9025063e-002
 -5.2322198e-002 -3.8676172e-002
 -4.6171359e-002 -3.5378131e-002
 -4.2556653e-002 -3.2943625e-002
 -4.4483542e-002 -3.3735129e-002
 -5.1108504e-002 -3.6820466e-002
 -5.8587529e-002 -3.8981250e-002
 -6.2871836e-002 -3.7618312e-002
 -6.2411772e-002 -3.3226836e-002
 -5.8891176e-002 -2.9447260e-002
 -5.5712479e-002 -3.0497741e-002
 -5.5420451e-002 -3.7815192e-002
 -5.8005577e-002 -4.8574776e-002
 -6.1264654e-002 -5.7269717e-002
 -6.2669546e-002 -5.9294343e-002
 -6.1327135e-002 -5.4012319e-002
 -5.8552695e-002 -4.5121141e-002
 -5.6774627e-002 -3.8119556e-002
 -5.7672754e-002 -3.6654969e-002
 -6.0948638e-002 -4.0321895e-002
 -6.4587999e-002 -4.5427696e-002
 -6.6358240e-002 -4.7961040e-002
 -6.5371642e-002 -4.6480636e-002
 -6.2573150e-002 -4.2811391e-002
 -5.9932339e-002 -4.0271354e-002
 -5.8999266e-002 -4.0890097e-002
 -5.9949298e-002 -4.3859545e-002
 -6.1683887e-002 -4.6318236e-002
 -6.2814771e-002 -4.5822926e-002
 -6.2736850e-002 -4.2473463e-002
 -6.1931025e-002 -3.8938281e-002
 -6.1378397e-002 -3.8312369e-002
 -6.1626091e-002 -4.1522754e-002
 -6.2342779e-002 -4.6386916e-002
 -6.2662420e-002 -4.9088984e-002
 -6.1975801e-002 -4.7062745e-002
 -6.0481285e-002 -4.1059735e-002
 -5.8999907e-002 -3.4804709e-002
 -5.8248831e-002 -3.2367160e-002
 -5.8188158e-002 -3.5280152e-002
 -5.8100396e-002 -4.1425534e-002
 -5.7337618e-002 -4.6703744e-002
 -5.6154954e-002 -4.8052654e-002
 -5.5716717e-002 -4.5570060e-002
 -5.7197127e-002 -4.2233459e-002
 -6.0562325e-002 -4.1487517e-002
 -6.4083288e-002 -4.4551552e-002
 -6.5211210e-002 -4.9564601e-002
 -6.2335917e-002 -5.3051566e-002
 -5.6226047e-002 -5.2586447e-002
 -4.9918232e-002 -4.8479221e-002
 -4.6929055e-002 -4.3287381e-002
 -4.8914347e-002 -3.9742694e-002
 -5.4460920e-002 -3.8815231e-002
 -5.9972270e-002 -3.9399423e-002
 -6.2078793e-002 -3.9705984e-002
 -5.9892818e-002 -3.8901831e-002
 -5.5427457e-002 -3.7702786e-002
 -5.1959285e-002 -3.7283088e-002
 -5.1506490e-002 -3.7748722e-002
 -5.3488622e-002 -3.7732410e-002
 -5.5459042e-002 -3.5552773e-002
 -5.5327382e-002 -3.1187026e-002
 -5.3269908e-002 -2.6958096e-002
 -5.1587827e-002 -2.6146719e-002
 -5.2730130e-002 -3.0257311e-002
 -5.6935978e-002 -3.7187544e-002
 -6.1653710e-002 -4.2198197e-002
 -6.3363655e-002 -4.1270040e-002
 -6.0433975e-002 -3.4419482e-002
 -5.4680256e-002 -2.6175390e-002
 -5.0157531e-002 -2.2478450e-002
 -4.9957748e-002 -2.6122704e-002
 -5.3594813e-002 -3.4338015e-002
 -5.7213738e-002 -4.0522362e-002
 -5.6669524e-002 -3.9181323e-002
 -5.1149408e-002 -3.0273493e-002
 -4.4306969e-002 -1.9618765e-002
 -4.1720334e-002 -1.4668958e-002
 -4.6386669e-002 -1.8786346e-002
 -5.5857136e-002 -2.8485285e-002
 -6.3564644e-002 -3.5977174e-002
 -6.3652717e-002 -3.5150405e-002
 -5.5676466e-002 -2.6425463e-002
 -4.5360584e-002 -1.6573436e-002
 -4.0492040e-002 -1.3478092e-002
 -4.4826362e-002 -1.9753643e-002
 -5.4766365e-002 -3.0288207e-002
 -6.1622155e-002 -3.5780634e-002
 -5.8091516e-002 -2.9669428e-002
 -4.4058662e-002 -1.3137522e-002
 -2.7065803e-002  5.8192423e-003
 -1.6782836e-002  1.8421777e-002
 -1.7561151e-002  2.1634103e-002
 -2.4775841e-002  2.0054705e-002
 -2.8062160e-002  2.1774198e-002
 -1.9183860e-002  3.1576233e-002
  1.3860089e-003  4.7002365e-002
  2.4321837e-002  6.0423158e-002
  3.8024605e-002  6.5252970e-002
  3.6919139e-002  6.1019663e-002
  2.5060569e-002  5.2998061e-002
  1.2275879e-002  4.6776266e-002
  6.0157897e-003  4.2538944e-002
  5.4764146e-003  3.4389582e-002
  2.8689946e-003  1.5730267e-002
 -9.2307545e-003 -1.3522452e-002
 -3.0455208e-002 -4.4291099e-002
 -5.1599112e-002 -6.3424697e-002
 -6.1293716e-002 -6.3246673e-002
 -5.5276801e-002 -4.8074824e-002
 -4.0609420e-002 -3.1910612e-002
 -3.0905434e-002 -2.8315989e-002
 -3.5836525e-002 -3.9984576e-002
 -5.3203611e-002 -5.6503120e-002
 -7.0250011e-002 -6.2659756e-002
 -7.3805972e-002 -5.1252634e-002
 -6.1324906e-002 -3.0065033e-002
 -4.3702901e-002 -1.6638756e-002
 -3.6893648e-002 -2.4020393e-002
 -4.8436047e-002 -4.8773026e-002
 -7.0108559e-002 -7.1557674e-002
 -8.3556421e-002 -7.1365011e-002
 -7.5521727e-002 -4.3030135e-002
 -5.0527498e-002 -3.5744976e-003
 -2.9267288e-002  1.9891548e-002
 -3.1275267e-002  1.3699357e-002
 -5.3672487e-002 -4.9638659e-003
 -6.3367065e-002  7.5455683e-003
 -1.2821639e-002  9.3880834e-002
  1.2727088e-001  2.6161727e-001
  3.3915956e-001  4.6644076e-001
  5.5467276e-001  6.2740954e-001
  6.8422207e-001  6.6851389e-001
  6.6387061e-001  5.6244351e-001
  4.9262745e-001  3.4887892e-001
  2.3634710e-001  1.1489243e-001
 -5.4528782e-003 -5.1382819e-002
 -1.5064679e-001 -1.0575791e-001
 -1.7332939e-001 -6.5171373e-002
 -1.0870281e-001  1.1176337e-002
 -2.4050444e-002  6.2072826e-002
  2.3706945e-002  5.9403856e-002
  1.7166105e-002  1.7382954e-002
 -2.1234969e-002 -2.6006657e-002
 -5.3292864e-002 -3.9376617e-002
 -5.4203710e-002 -1.8314877e-002
 -2.6967514e-002  1.6222808e-002
  5.0372116e-003  3.6992773e-002
  1.8629172e-002  3.1136115e-002
  7.9848126e-003  7.5383186e-003
 -1.3372424e-002 -1.2581403e-002
 -2.5119652e-002 -1.2924523e-002
 -1.6212193e-002  6.3728703e-003
  7.8211714e-003  3.0742932e-002
  3.0815276e-002  4.3753960e-002
  3.9224662e-002  3.9649623e-002
  3.2053481e-002  2.6500461e-002
  2.0333382e-002  1.8598969e-002
  1.7608800e-002  2.4898973e-002
  2.9486842e-002  4.2622234e-002
  5.0220944e-002  6.0422773e-002
  6.8272239e-002  6.7884967e-002
  7.5794149e-002  6.3607596e-002
  7.4454988e-002  5.5851248e-002
  7.3478109e-002  5.5759995e-002
  8.2052634e-002  6.8930414e-002
  1.0241158e-001  9.1728065e-002
  1.2879474e-001  1.1470847e-001
  1.5254780e-001  1.2987890e-001
  1.6893915e-001  1.3623405e-001
  1.8035166e-001  1.3964457e-001
  1.9373671e-001  1.4779288e-001
  2.1475020e-001  1.6444471e-001
  2.4339927e-001  1.8723231e-001
  2.7440112e-001  2.1012602e-001
  3.0152396e-001  2.2805677e-001
  3.2208050e-001  2.3999856e-001
  3.3811049e-001  2.4867030e-001
  3.5355488e-001  2.5758320e-001
  3.7003638e-001  2.6820432e-001
  3.8472333e-001  2.7923268e-001
  3.9188482e-001  2.8808294e-001
  3.8679834e-001  2.9282186e-001
  3.6882711e-001  2.9285141e-001
  3.4143429e-001  2.8805082e-001
  3.0938854e-001  2.7760421e-001
  2.7562143e-001  2.5998951e-001
  2.4020824e-001  2.3426332e-001
  2.0193835e-001  2.0158750e-001
  1.6095273e-001  1.6558256e-001
  1.2007413e-001  1.3091880e-001
  8.3714611e-002  1.0110353e-001
  5.5248053e-002  7.7074818e-002
  3.4998666e-002  5.7525750e-002
  2.0426850e-002  4.0629889e-002
  8.2187037e-003  2.5575584e-002
 -3.4128005e-003  1.2921522e-002
 -1.3929847e-002  3.5460398e-003
 -2.1596125e-002 -2.5848283e-003
 -2.5428101e-002 -6.7616072e-003
 -2.6307059e-002 -1.0701530e-002
 -2.6349967e-002 -1.5205525e-002
 -2.7266293e-002 -1.9665962e-002
 -2.9125354e-002 -2.2707542e-002
 -3.0574368e-002 -2.3552347e-002
 -3.0228333e-002 -2.2668390e-002
 -2.7982128e-002 -2.1403740e-002
 -2.5233572e-002 -2.0857589e-002
 -2.3785752e-002 -2.1030881e-002
 -2.4412045e-002 -2.0937024e-002
 -2.6249266e-002 -1.9670775e-002
 -2.7495372e-002 -1.7310209e-002
 -2.6871626e-002 -1.5039868e-002
 -2.4641183e-002 -1.4149680e-002
 -2.2382544e-002 -1.4917415e-002
 -2.1685832e-002 -1.6210643e-002
 -2.2864676e-002 -1.6312540e-002
 -2.4696812e-002 -1.4234649e-002
 -2.5367027e-002 -1.0529539e-002
 -2.3870912e-002 -6.8737256e-003
 -2.0823379e-002 -4.8074366e-003
 -1.8027710e-002 -4.5773108e-003
 -1.7159158e-002 -4.9891046e-003
 -1.8548649e-002 -4.4307021e-003
 -2.0992748e-002 -2.2105304e-003
 -2.2679539e-002  8.1305843e-004
 -2.2511896e-002  2.9274405e-003
 -2.0886757e-002  2.8666134e-003
 -1.9370190e-002  8.6682151e-004
 -1.9578859e-002 -1.4238283e-003
 -2.2067351e-002 -2.1088551e-003
 -2.5990520e-002 -4.9387120e-004
 -2.9762737e-002  2.2116111e-003
 -3.2169988e-002  3.4525408e-003
 -3.3150107e-002  8.5910021e-004
 -3.3698309e-002 -6.2141525e-003
 -3.5073985e-002 -1.6061022e-002
 -3.7870648e-002 -2.5233830e-002
 -4.1555490e-002 -3.0133453e-002
 -4.4771581e-002 -2.8780342e-002
 -4.6194806e-002 -2.1930606e-002
 -4.5311035e-002 -1.2870268e-002
 -4.2667224e-002 -5.9658057e-003
 -3.9481229e-002 -4.5539686e-003
 -3.6956221e-002 -9.2638182e-003
 -3.5748561e-002 -1.7654662e-002
 -3.5834882e-002 -2.5488173e-002
 -3.6798804e-002 -2.9046706e-002
 -3.8174602e-002 -2.7217857e-002
 -3.9646241e-002 -2.2012789e-002
 -4.0988427e-002 -1.7190718e-002
 -4.1923872e-002 -1.5824098e-002
 -4.2170021e-002 -1.8412216e-002
 -4.1668193e-002 -2.2800068e-002
 -4.0797005e-002 -2.5907287e-002
 -4.0249362e-002 -2.6052428e-002
 -4.0629286e-002 -2.4196687e-002
 -4.1963629e-002 -2.3180342e-002
 -4.3566115e-002 -2.5482703e-002
 -4.4458559e-002 -3.1251161e-002
 -4.4137480e-002 -3.8012857e-002
 -4.3114325e-002 -4.2299334e-002
 -4.2665828e-002 -4.1949338e-002
 -4.3881886e-002 -3.7471751e-002
 -4.6690796e-002 -3.1543082e-002
 -4.9645165e-002 -2.7162810e-002
 -5.0808774e-002 -2.5848122e-002
 -4.9180811e-002 -2.7185710e-002
 -4.5660403e-002 -2.9743253e-002
 -4.2679433e-002 -3.2421133e-002
 -4.2579589e-002 -3.5032622e-002
 -4.5870608e-002 -3.7841283e-002
 -5.0685738e-002 -4.0728605e-002
 -5.4023363e-002 -4.2935369e-002
 -5.3875284e-002 -4.3640614e-002
 -5.0736209e-002 -4.2873507e-002
 -4.7304295e-002 -4.1727936e-002
 -4.6504250e-002 -4.1558553e-002
 -4.9266619e-002 -4.2730443e-002
 -5.3782875e-002 -4.4134538e-002
 -5.6887087e-002 -4.4112598e-002
 -5.6506721e-002 -4.2099782e-002
 -5.3285903e-002 -3.9482355e-002
 -5.0005713e-002 -3.8770684e-002
 -4.9321520e-002 -4.1489988e-002
 -5.1544304e-002 -4.6564738e-002
 -5.4338467e-002 -5.0665922e-002
 -5.4641120e-002 -5.0641128e-002
 -5.1309148e-002 -4.6193545e-002
 -4.6314773e-002 -4.0540700e-002
 -4.3382187e-002 -3.8186331e-002
 -4.5057967e-002 -4.1354934e-002
 -5.0573884e-002 -4.7909490e-002
 -5.6322425e-002 -5.2629252e-002
 -5.8661630e-002 -5.1100966e-002
 -5.6861629e-002 -4.3376444e-002
 -5.3712781e-002 -3.4299806e-002
 -5.3194307e-002 -3.0021736e-002
 -5.6951258e-002 -3.3234326e-002
 -6.2536248e-002 -4.0930363e-002
 -6.5089992e-002 -4.6696055e-002
 -6.1291815e-002 -4.5824615e-002
 -5.2494531e-002 -3.9339629e-002
 -4.4279896e-002 -3.3431220e-002
 -4.2573869e-002 -3.4588748e-002
 -4.9118213e-002 -4.4083114e-002
 -5.9934530e-002 -5.6308160e-002
 -6.8160735e-002 -6.2706893e-002
 -6.9165645e-002 -5.8332510e-002
 -6.3969275e-002 -4.6121124e-002
 -5.8155677e-002 -3.5097497e-002
 -5.7127020e-002 -3.3670187e-002
 -6.1428558e-002 -4.3018473e-002
 -6.6139473e-002 -5.5779593e-002
 -6.5036405e-002 -6.1275732e-002
 -5.6153919e-002 -5.3526000e-002
 -4.4111558e-002 -3.5719399e-002
 -3.6846583e-002 -1.7719963e-002
 -3.8980341e-002 -8.5179668e-003
 -4.7166349e-002 -9.4888157e-003
 -5.1599316e-002 -1.3715233e-002
 -4.3139289e-002 -1.1784334e-002
 -2.0832013e-002  5.2132870e-004
  6.1431063e-003  1.8783717e-002
  2.4037791e-002  3.3256336e-002
  2.3855282e-002  3.6232877e-002
  7.5026451e-003  2.7369482e-002
 -1.3937110e-002  1.2817573e-002
 -2.8608553e-002 -7.7982301e-004
 -3.2462797e-002 -1.2045950e-002
 -3.1451615e-002 -2.5292194e-002
 -3.5627462e-002 -4.5261660e-002
 -5.0094918e-002 -7.0859365e-002
 -7.0200435e-002 -9.3857036e-002
 -8.5047683e-002 -1.0436687e-001
 -8.6570946e-002 -9.9091100e-002
 -7.6693658e-002 -8.5175998e-002
 -6.6359984e-002 -7.5747643e-002
 -6.6794157e-002 -7.9821401e-002
 -7.9972203e-002 -9.4703043e-002
 -9.6372606e-002 -1.0747136e-001
 -1.0249196e-001 -1.0528822e-001
 -9.2390820e-002 -8.6570772e-002
 -7.3687286e-002 -6.3763580e-002
 -6.2321228e-002 -5.4358874e-002
 -6.9508806e-002 -6.6587527e-002
 -9.1321046e-002 -9.1311106e-002
 -1.1026544e-001 -1.0770922e-001
 -1.0904743e-001 -9.9660178e-002
 -8.6136981e-002 -7.0048956e-002
 -5.9526182e-002 -4.0346854e-002
 -5.3106210e-002 -3.3374863e-002
 -7.3752130e-002 -5.0904908e-002
 -9.6815150e-002 -6.4105157e-002
 -7.4286622e-002 -2.7532526e-002
  3.5162374e-002  8.9178668e-002
  2.3202824e-001  2.7260420e-001
  4.6179229e-001  4.6144633e-001
  6.3434892e-001  5.7401034e-001
  6.6927011e-001  5.5292337e-001
  5.4101074e-001  3.9967242e-001
  2.9610599e-001  1.7655856e-001
  3.0605682e-002 -2.6297556e-002
 -1.5945148e-001 -1.3901369e-001
 -2.2532820e-001 -1.4583185e-001
 -1.8348166e-001 -8.5402132e-002
 -9.6032694e-002 -2.0106865e-002
 -2.8996993e-002  3.7517098e-003
 -1.5588781e-002 -2.0602785e-002
 -4.5591413e-002 -6.5609715e-002
 -8.2993206e-002 -9.5420061e-002
 -9.5938567e-002 -9.2386034e-002
 -7.7572824e-002 -6.6061764e-002
 -4.5568811e-002 -4.1227522e-002
 -2.4522684e-002 -3.6719404e-002
 -2.6477913e-002 -5.1913848e-002
 -4.3851695e-002 -6.9878803e-002
 -5.8084378e-002 -7.2830083e-002
 -5.5402388e-002 -5.6642647e-002
 -3.6904535e-002 -3.3258193e-002
 -1.6080336e-002 -2.0085755e-002
 -6.9973135e-003 -2.5653827e-002
 -1.3168549e-002 -4.3012319e-002
 -2.5594043e-002 -5.5682580e-002
 -3.0643711e-002 -5.0866924e-002
 -2.0842538e-002 -2.9266450e-002
 -3.3861224e-005 -4.0459062e-003
  2.0570761e-002  9.7198118e-003
  3.1610512e-002  6.5534094e-003
  3.2573647e-002 -5.7797299e-003
  3.1362121e-002 -1.2920669e-002
  3.7522138e-002 -5.0832017e-003
  5.4825370e-002  1.5852749e-002
  7.9071176e-002  3.8647956e-002
  1.0232172e-001  5.2058895e-002
  1.1962200e-001  5.3617547e-002
  1.3264369e-001  5.1123349e-002
  1.4761536e-001  5.6187925e-002
  1.6965607e-001  7.5172724e-002
  1.9834727e-001  1.0459165e-001
  2.2809120e-001  1.3418242e-001
  2.5269828e-001  1.5483758e-001
  2.7023794e-001  1.6500548e-001
  2.8417844e-001  1.7084211e-001
  2.9994340e-001  1.8047991e-001
  3.1975986e-001  1.9719856e-001
  3.4004442e-001  2.1695308e-001
  3.5336461e-001  2.3170214e-001
  3.5335388e-001  2.3562557e-001
  3.3874396e-001  2.2917731e-001
  3.1353539e-001  2.1794847e-001
  2.8350868e-001  2.0758474e-001
  2.5199583e-001  1.9897878e-001
  2.1831255e-001  1.8762651e-001
  1.7983236e-001  1.6740381e-001
  1.3573812e-001  1.3580106e-001
  8.9204487e-002  9.6419372e-002
  4.6179415e-002  5.7007158e-002
  1.1786413e-002  2.4679979e-002
 -1.2801605e-002  1.9472457e-003
 -3.0615874e-002 -1.3775150e-002
 -4.6178284e-002 -2.7126165e-002
 -6.2025774e-002 -4.0940347e-002
 -7.7175021e-002 -5.4455660e-002
 -8.8503370e-002 -6.4674019e-002
 -9.3823167e-002 -6.9324384e-002
 -9.3955771e-002 -6.8958224e-002
 -9.2326706e-002 -6.6657001e-002
 -9.2486938e-002 -6.5784958e-002
 -9.5634018e-002 -6.7764374e-002
 -1.0005305e-001 -7.1497865e-002
 -1.0283449e-001 -7.4752342e-002
 -1.0239784e-001 -7.6015875e-002
 -9.9717330e-002 -7.5418577e-002
 -9.7385454e-002 -7.4063172e-002
 -9.7439453e-002 -7.2788560e-002
 -9.9680685e-002 -7.1438319e-002
 -1.0184084e-001 -6.9209425e-002
 -1.0139274e-001 -6.5604874e-002
 -9.7450809e-002 -6.1170823e-002
 -9.1401347e-002 -5.7166866e-002
 -8.5838644e-002 -5.4580313e-002
 -8.2693554e-002 -5.3288764e-002
 -8.2049712e-002 -5.2227739e-002
 -8.2431508e-002 -5.0422759e-002
 -8.2177590e-002 -4.7949738e-002
 -8.0722051e-002 -4.6009524e-002
 -7.8803070e-002 -4.5934631e-002
 -7.7623823e-002 -4.7991715e-002
 -7.7771280e-002 -5.0925525e-002
 -7.8752801e-002 -5.2731684e-002
 -7.9513358e-002 -5.2095270e-002
 -7.9352858e-002 -4.9408550e-002
 -7.8473146e-002 -4.6541035e-002
 -7.7686803e-002 -4.5500593e-002
 -7.7621130e-002 -4.7011452e-002
 -7.8170302e-002 -5.0012581e-002
 -7.8665350e-002 -5.2434186e-002
 -7.8553040e-002 -5.2584982e-002
 -7.7963038e-002 -5.0190926e-002
 -7.7659056e-002 -4.6370678e-002
 -7.8363808e-002 -4.2782823e-002
 -8.0074057e-002 -4.0571583e-002
 -8.1900570e-002 -3.9975125e-002
 -8.2712283e-002 -4.0671472e-002
 -8.1981952e-002 -4.2384084e-002
 -8.0220879e-002 -4.5076018e-002
 -7.8585453e-002 -4.8616466e-002
 -7.8028002e-002 -5.2301194e-002
 -7.8600213e-002 -5.4819813e-002
 -7.9544752e-002 -5.4899646e-002
 -7.9964366e-002 -5.2290343e-002
 -7.9606489e-002 -4.8273025e-002
 -7.9033464e-002 -4.5145385e-002
 -7.9064845e-002 -4.4818676e-002
 -7.9941489e-002 -4.7518044e-002
 -8.0967109e-002 -5.1491679e-002
 -8.0976269e-002 -5.4055007e-002
 -7.9281635e-002 -5.3371292e-002
 -7.6331289e-002 -4.9713293e-002
 -7.3502269e-002 -4.5431244e-002
 -7.2098137e-002 -4.3405693e-002
 -7.2321854e-002 -4.5112804e-002
 -7.3036384e-002 -4.9583910e-002
 -7.2617600e-002 -5.3959362e-002
 -7.0357384e-002 -5.5339208e-002
 -6.7232774e-002 -5.2585297e-002
 -6.5421127e-002 -4.6972619e-002
 -6.6723699e-002 -4.1245110e-002
 -7.0999701e-002 -3.7789607e-002
 -7.5823234e-002 -3.7205090e-002
 -7.7797004e-002 -3.8250941e-002
 -7.4768253e-002 -3.9108485e-002
 -6.7481065e-002 -3.8907537e-002
 -5.9392725e-002 -3.8356213e-002
 -5.4636144e-002 -3.9006692e-002
 -5.5426299e-002 -4.1809609e-002
 -6.0626986e-002 -4.6078502e-002
 -6.6462704e-002 -4.9733681e-002
 -6.8927149e-002 -5.0679863e-002
 -6.6341654e-002 -4.8338132e-002
 -6.0290465e-002 -4.4044180e-002
 -5.4389929e-002 -4.0051133e-002
 -5.1794799e-002 -3.7889615e-002
 -5.3229672e-002 -3.7425280e-002
 -5.6827141e-002 -3.7312534e-002
 -5.9757152e-002 -3.6435519e-002
 -6.0331369e-002 -3.5190196e-002
 -5.9009888e-002 -3.5339188e-002
 -5.7666153e-002 -3.8496003e-002
 -5.7761868e-002 -4.4363531e-002
 -5.9004503e-002 -5.0269628e-002
 -5.9550608e-002 -5.2672797e-002
 -5.7599639e-002 -4.9641575e-002
 -5.3026394e-002 -4.2463876e-002
 -4.7696655e-002 -3.5058429e-002
 -4.4172692e-002 -3.1430691e-002
 -4.3789992e-002 -3.2915248e-002
 -4.5583081e-002 -3.7277060e-002
 -4.7021448e-002 -4.0427343e-002
 -4.5930991e-002 -3.9523926e-002
 -4.2126199e-002 -3.5112797e-002
 -3.7419181e-002 -3.0654492e-002
 -3.4001039e-002 -2.9760461e-002
 -3.2583314e-002 -3.3265950e-002
 -3.1849519e-002 -3.8398185e-002
 -2.9708249e-002 -4.0772665e-002
 -2.5369003e-002 -3.7734297e-002
 -2.0432727e-002 -3.0519198e-002
 -1.7930522e-002 -2.3520575e-002
 -1.9883075e-002 -2.1147174e-002
 -2.5312331e-002 -2.4650543e-002
 -3.0436574e-002 -3.1278521e-002
 -3.1177267e-002 -3.6310061e-002
 -2.6155951e-002 -3.6391613e-002
 -1.7943730e-002 -3.1672170e-002
 -1.1446353e-002 -2.5294246e-002
 -1.0521917e-002 -2.0851705e-002
 -1.5243570e-002 -1.9843513e-002
 -2.1876844e-002 -2.1145174e-002
 -2.5567492e-002 -2.2492390e-002
 -2.3752138e-002 -2.2604027e-002
 -1.7725671e-002 -2.1962563e-002
 -1.1361732e-002 -2.1803599e-002
 -8.1510950e-003 -2.2484698e-002
 -8.9208800e-003 -2.2880807e-002
 -1.1841514e-002 -2.1423605e-002
 -1.4446994e-002 -1.7940763e-002
 -1.5774357e-002 -1.4352277e-002
 -1.6787069e-002 -1.3350132e-002
 -1.8840683e-002 -1.5972706e-002
 -2.1762801e-002 -2.0185948e-002
 -2.3520732e-002 -2.2116233e-002
 -2.1920003e-002 -1.9108214e-002
 -1.6910250e-002 -1.2325974e-002
 -1.1291202e-002 -6.4106118e-003
 -8.8986532e-003 -6.1388098e-003
 -1.1507906e-002 -1.2461241e-002
 -1.7066825e-002 -2.1183705e-002
 -2.0980779e-002 -2.5780422e-002
 -1.9763826e-002 -2.2434956e-002
 -1.4127816e-002 -1.3366562e-002
 -8.7642407e-003 -5.5793187e-003
 -8.6676586e-003 -5.6196230e-003
 -1.4770635e-002 -1.4239570e-002
 -2.2579976e-002 -2.5258697e-002
 -2.5259838e-002 -2.9765218e-002
 -1.9087892e-002 -2.2707132e-002
 -6.8611475e-003 -6.8083065e-003
  3.7900613e-003  9.4078591e-003
  6.3649101e-003  1.8143431e-002
  1.1605671e-003  1.8328669e-002
 -4.0681319e-003  1.6330755e-002
  3.7718425e-004  2.0681367e-002
  1.8341499e-002  3.4929123e-002
  4.3772111e-002  5.4250372e-002
  6.4017702e-002  6.8663537e-002
  6.8466246e-002  7.0383401e-002
  5.6176741e-002  5.9494621e-002
  3.6633745e-002  4.3390388e-002
  2.2677259e-002  3.0593321e-002
  2.0997272e-002  2.3984370e-002
  2.7307906e-002  1.9031850e-002
  3.0104471e-002  8.5924595e-003
  2.0112270e-002 -9.8213481e-003
 -2.0054206e-003 -3.0564943e-002
 -2.5840247e-002 -4.3540498e-002
 -3.9204069e-002 -4.2357637e-002
 -3.7674105e-002 -3.0272608e-002
 -2.7895873e-002 -1.8508394e-002
 -2.1871084e-002 -1.7722080e-002
 -2.6801597e-002 -2.9301383e-002
 -3.8926872e-002 -4.3818369e-002
 -4.6747496e-002 -4.8554146e-002
 -4.1265590e-002 -3.8354389e-002
 -2.4706406e-002 -2.0795553e-002
 -9.9007543e-003 -1.0760685e-002
 -9.9568502e-003 -1.7999806e-002
 -2.6300246e-002 -3.7706110e-002
 -4.5582950e-002 -5.2817345e-002
 -4.9491823e-002 -4.7262638e-002
 -3.0702105e-002 -2.0260327e-002
 -1.6875281e-003  1.1065947e-002
  1.3006992e-002  2.5011797e-002
 -2.0358112e-003  1.6312280e-002
 -3.3594038e-002  8.1357089e-003
 -3.8950973e-002  4.2739701e-002
  3.0762037e-002  1.5313395e-001
  1.9513701e-001  3.3330969e-001
  4.2041585e-001  5.2902065e-001
  6.2605740e-001  6.5943871e-001
  7.2245162e-001  6.5981547e-001
  6.5941142e-001  5.1975148e-001
  4.5617267e-001  2.9259448e-001
  1.9355463e-001  6.8638791e-002
 -2.7921440e-002 -7.2331976e-002
 -1.3923287e-001 -1.0068914e-001
 -1.3332317e-001 -4.5621229e-002
 -5.8710549e-002  2.9990318e-002
  1.6507758e-002  7.0382190e-002
  4.5645868e-002  5.7023908e-002
  2.4449163e-002  1.1184568e-002
 -1.7374112e-002 -2.8533478e-002
 -4.3744543e-002 -3.5441868e-002
 -3.7892989e-002 -1.0555552e-002
 -9.6508514e-003  2.3303929e-002
  1.7188165e-002  4.1502128e-002
  2.5017857e-002  3.5411339e-002
  1.4364585e-002  1.5702261e-002
  2.7659787e-004  1.1137545e-003
 -1.7412039e-003  3.1559183e-003
  1.1877263e-002  1.8741968e-002
  3.1429948e-002  3.5182512e-002
  4.3341138e-002  4.1904661e-002
  4.1733616e-002  3.8768624e-002
  3.2716299e-002  3.4725445e-002
  2.8555527e-002  3.8842985e-002
  3.7177464e-002  5.1952275e-002
  5.5801520e-002  6.5903886e-002
  7.3660735e-002  7.0748356e-002
  8.1198829e-002  6.3552827e-002
  7.8048132e-002  5.1469070e-002
  7.3456961e-002  4.6493800e-002
  7.8985980e-002  5.6251858e-002
  9.9507127e-002  7.8243518e-002
  1.2957590e-001  1.0207927e-001
  1.5780153e-001  1.1772463e-001
  1.7559274e-001  1.2308940e-001
  1.8332880e-001  1.2500231e-001
  1.8945705e-001  1.3316862e-001
  2.0364684e-001  1.5218001e-001
  2.2957420e-001  1.7804162e-001
  2.6281350e-001  2.0176780e-001
  2.9492747e-001  2.1688019e-001
  3.2005739e-001  2.2458716e-001
  3.3859135e-001  2.3242180e-001
  3.5536433e-001  2.4758178e-001
  3.7424479e-001  2.7047907e-001
  3.9391139e-001  2.9376688e-001
  4.0822457e-001  3.0765908e-001
  4.1077023e-001  3.0731085e-001
  3.9958005e-001  2.9622802e-001
  3.7823213e-001  2.8323061e-001
  3.5259546e-001  2.7523755e-001
  3.2608843e-001  2.7173502e-001
  2.9747365e-001  2.6517985e-001
  2.6289879e-001  2.4691169e-001
  2.2042290e-001  2.1404496e-001
  1.7310641e-001  1.7202237e-001
  1.2802460e-001  1.3106910e-001
  9.1907730e-002  9.9415385e-002
  6.6852210e-002  7.8435207e-002
  4.9451277e-002  6.3093163e-002
  3.3911501e-002  4.6914719e-002
  1.6681061e-002  2.7333708e-002
 -1.1067870e-003  7.3478856e-003
 -1.5136627e-002 -7.4750305e-003
 -2.1922071e-002 -1.3817273e-002
 -2.1954424e-002 -1.3292396e-002
 -1.9453093e-002 -1.1058219e-002
 -1.9052935e-002 -1.1729920e-002
 -2.2261668e-002 -1.6030671e-002
 -2.6584987e-002 -2.0811236e-002
 -2.7971725e-002 -2.2173555e-002
 -2.4541388e-002 -1.8947216e-002
 -1.8450916e-002 -1.3669180e-002
 -1.4362838e-002 -1.0404136e-002
 -1.5723782e-002 -1.1384748e-002
 -2.1923066e-002 -1.5328203e-002
 -2.8653414e-002 -1.8719632e-002
 -3.1149714e-002 -1.8856235e-002
 -2.7793312e-002 -1.6051972e-002
 -2.1230091e-002 -1.3177803e-002
 -1.6182715e-002 -1.2972755e-002
 -1.5748701e-002 -1.5506331e-002
 -1.9118474e-002 -1.7978942e-002
 -2.2470445e-002 -1.7060703e-002
 -2.2217111e-002 -1.1798386e-002
 -1.7924500e-002 -4.7165684e-003
 -1.2603910e-002 -5.0624362e-005
 -1.0199731e-002 -5.5312972e-004
 -1.2391128e-002 -5.3573396e-003
 -1.7241761e-002 -1.0611159e-002
 -2.0747622e-002 -1.2369981e-002
 -2.0004308e-002 -9.5213663e-003
 -1.5478682e-002 -4.3899215e-003
 -1.0597315e-002 -7.7385429e-004
 -9.0663042e-003 -9.3283414e-004
 -1.2070452e-002 -4.0563537e-003
 -1.7504488e-002 -7.2178779e-003
 -2.1692203e-002 -7.8741250e-003
 -2.2117050e-002 -5.9371052e-003
 -1.9072797e-002 -3.6023619e-003
 -1.5063896e-002 -3.3428930e-003
 -1.2662634e-002 -5.7029039e-003
 -1.2637191e-002 -8.8331141e-003
 -1.3807958e-002 -1.0070756e-002
 -1.4518846e-002 -8.2860987e-003
 -1.4300752e-002 -4.9334590e-003
 -1.4256654e-002 -3.0647370e-003
 -1.5946069e-002 -4.9670415e-003
 -1.9790651e-002 -1.0405530e-002
 -2.4451500e-002 -1.6724062e-002
 -2.7745171e-002 -2.0797225e-002
 -2.8331421e-002 -2.1184555e-002
 -2.6723152e-002 -1.8882044e-002
 -2.4757172e-002 -1.6223058e-002
 -2.3991998e-002 -1.4977496e-002
 -2.4452064e-002 -1.5216039e-002
 -2.4757619e-002 -1.5706927e-002
 -2.3533134e-002 -1.5285597e-002
 -2.0816207e-002 -1.3955376e-002
 -1.8247589e-002 -1.2799668e-002
 -1.7784720e-002 -1.2810499e-002
 -2.0007703e-002 -1.3879260e-002
 -2.3455745e-002 -1.4877906e-002
 -2.5651932e-002 -1.4706950e-002
 -2.5050343e-002 -1.3383064e-002
 -2.2265569e-002 -1.2057940e-002
 -1.9592299e-002 -1.1918719e-002
 -1.9222269e-002 -1.2971071e-002
 -2.1562706e-002 -1.3864858e-002
 -2.5086378e-002 -1.3092438e-002
 -2.7723492e-002 -1.0548855e-002
 -2.8625029e-002 -8.0613624e-003
 -2.8768824e-002 -8.0752099e-003
 -2.9843977e-002 -1.1441800e-002
 -3.2428375e-002 -1.6145135e-002
 -3.5112954e-002 -1.8244766e-002
 -3.5517835e-002 -1.4696862e-002
 -3.2420360e-002 -6.0095125e-003
 -2.7175647e-002  3.4079410e-003
 -2.3096164e-002  7.7241091e-003
 -2.3021821e-002  3.5008661e-003
 -2.6924203e-002 -7.8524454e-003
 -3.1586838e-002 -2.0877482e-002
 -3.2833227e-002 -2.9559316e-002
 -2.8768227e-002 -3.1062473e-002
 -2.1512106e-002 -2.7124133e-002
 -1.5867812e-002 -2.2233733e-002
 -1.5885741e-002 -2.0170453e-002
 -2.1776753e-002 -2.1497953e-002
 -2.9669127e-002 -2.3793750e-002
 -3.4393270e-002 -2.4111316e-002
 -3.3303286e-002 -2.1549758e-002
 -2.8192234e-002 -1.7848939e-002
 -2.3814378e-002 -1.5635830e-002
 -2.4144113e-002 -1.6036946e-002
 -2.9256891e-002 -1.7686087e-002
 -3.5287548e-002 -1.8067856e-002
 -3.7433536e-002 -1.5920126e-002
 -3.3689966e-002 -1.2611617e-002
 -2.6431114e-002 -1.1175522e-002
 -2.0643189e-002 -1.3738880e-002
 -2.0199327e-002 -1.9467049e-002
 -2.5018442e-002 -2.4885449e-002
 -3.1319180e-002 -2.6499438e-002
 -3.4580539e-002 -2.3564390e-002
 -3.2878615e-002 -1.8845205e-002
 -2.7994886e-002 -1.6447846e-002
 -2.3668431e-002 -1.8514344e-002
 -2.2570827e-002 -2.3363052e-002
 -2.4485450e-002 -2.6735005e-002
 -2.7015502e-002 -2.5215823e-002
 -2.8026487e-002 -1.9188823e-002
 -2.7584502e-002 -1.2798602e-002
 -2.7670415e-002 -1.0848295e-002
 -3.0041641e-002 -1.5031062e-002
 -3.4209485e-002 -2.2498560e-002
 -3.7452902e-002 -2.7980639e-002
 -3.7026982e-002 -2.7845723e-002
 -3.2672888e-002 -2.2875671e-002
 -2.7232279e-002 -1.7530428e-002
 -2.4617248e-002 -1.6260033e-002
 -2.6647432e-002 -1.9775154e-002
 -3.1436476e-002 -2.4502452e-002
 -3.4813801e-002 -2.5575551e-002
 -3.3787642e-002 -2.1091353e-002
 -2.9215874e-002 -1.3970663e-002
 -2.5320162e-002 -9.8099860e-003
 -2.6250473e-002 -1.2277355e-002
 -3.2372296e-002 -1.9717252e-002
 -3.9412281e-002 -2.5926570e-002
 -4.1450853e-002 -2.4854972e-002
 -3.5677077e-002 -1.5576325e-002
 -2.5039682e-002 -3.6196325e-003
 -1.6501588e-002  2.7308644e-003
 -1.5950079e-002 -1.5235833e-003
 -2.3638844e-002 -1.4327035e-002
 -3.3784768e-002 -2.7852713e-002
 -3.8785896e-002 -3.4010946e-002
 -3.4969759e-002 -3.0030877e-002
 -2.5426235e-002 -2.0047089e-002
 -1.7743773e-002 -1.1590716e-002
 -1.8248129e-002 -9.8826909e-003
 -2.7151392e-002 -1.4365442e-002
 -3.8393489e-002 -2.0005732e-002
 -4.4243096e-002 -2.2006702e-002
 -4.1079730e-002 -1.9908742e-002
 -3.1890029e-002 -1.7636129e-002
 -2.3693722e-002 -1.9695081e-002
 -2.2059047e-002 -2.6763978e-002
 -2.7087917e-002 -3.4588666e-002
 -3.3915439e-002 -3.7325907e-002
 -3.7080462e-002 -3.2581527e-002
 -3.4977081e-002 -2.3847046e-002
 -3.0698759e-002 -1.8039091e-002
 -2.8772525e-002 -1.9947118e-002
 -3.0768560e-002 -2.8029229e-002
 -3.3752200e-002 -3.5188867e-002
 -3.3018241e-002 -3.4166304e-002
 -2.6683887e-002 -2.3334090e-002
 -1.7977348e-002 -8.1691935e-003
 -1.2832726e-002  2.9983866e-003
 -1.4454538e-002  5.6615572e-003
 -1.9509353e-002  2.8425478e-003
 -1.9726013e-002  2.5909896e-003
 -8.3051100e-003  1.1186099e-002
  1.3729120e-002  2.7435906e-002
  3.6664071e-002  4.2878954e-002
  4.8141541e-002  4.7981363e-002
  4.2039987e-002  3.9504121e-002
  2.3341630e-002  2.3041137e-002
  4.8652582e-003  8.4861390e-003
 -2.1504117e-003  1.9598751e-003
  3.4473302e-003  7.9227394e-004
  1.1832039e-002 -4.0860503e-003
  9.9131119e-003 -2.0029955e-002
 -8.1272401e-003 -4.5453759e-002
 -3.5761354e-002 -6.9746080e-002
 -5.8613660e-002 -8.0884726e-002
 -6.5274324e-002 -7.5070704e-002
 -5.5972461e-002 -6.0378074e-002
 -4.2168482e-002 -5.1004009e-002
 -3.7275889e-002 -5.6187233e-002
 -4.5889021e-002 -7.2622876e-002
 -6.0340666e-002 -8.6917768e-002
 -6.7529061e-002 -8.6541836e-002
 -6.0525122e-002 -7.0782018e-002
 -4.5157285e-002 -5.2334828e-002
 -3.5617707e-002 -4.7446057e-002
 -4.2159222e-002 -6.1927892e-002
 -6.1130968e-002 -8.4699955e-002
 -7.6492384e-002 -9.5259219e-002
 -7.2921708e-002 -8.0382920e-002
 -5.0277122e-002 -4.6836191e-002
 -2.6387820e-002 -1.8316302e-002
 -2.3154908e-002 -1.6336652e-002
 -4.4578772e-002 -3.8286171e-002
 -6.3977637e-002 -5.0524651e-002
 -3.3798610e-002 -5.6545527e-003
  8.3966183e-002  1.2419741e-001
  2.8506962e-001  3.1976787e-001
  5.1150910e-001  5.1385260e-001
  6.7327675e-001  6.2202356e-001
  6.9412508e-001  5.8874769e-001
  5.5480525e-001  4.2072108e-001
  3.0684834e-001  1.8587788e-001
  4.7176194e-002 -2.2379937e-002
 -1.3190901e-001 -1.3434917e-001
 -1.8778813e-001 -1.3699805e-001
 -1.4180873e-001 -7.2324129e-002
 -5.7061373e-002 -4.8611923e-003
  3.4979031e-003  1.8865655e-002
  1.1397177e-002 -6.6141133e-003
 -1.9986017e-002 -5.1955210e-002
 -5.4963330e-002 -8.0133577e-002
 -6.4840577e-002 -7.3569655e-002
 -4.6166669e-002 -4.3144325e-002
 -1.7708863e-002 -1.5683391e-002
 -2.1061406e-003 -1.1840132e-002
 -7.9088136e-003 -3.1474531e-002
 -2.5096929e-002 -5.6148568e-002
 -3.5456692e-002 -6.4894965e-002
 -2.7950724e-002 -5.0124766e-002
 -6.7268391e-003 -2.2002948e-002
  1.3594302e-002  7.7037549e-004
  2.0355513e-002  5.4960033e-003
  1.2645157e-002 -5.9941816e-003
  1.0375784e-003 -2.0512989e-002
 -1.6002218e-003 -2.4685303e-002
  9.7402841e-003 -1.4880850e-002
  2.9134021e-002  1.4814311e-003
  4.5606066e-002  1.3328483e-002
  5.2482358e-002  1.5201227e-002
  5.2485891e-002  1.1082371e-002
  5.4760673e-002  1.0194509e-002
  6.6780540e-002  1.8840721e-002
  8.8071146e-002  3.5284126e-002
  1.1081176e-001  5.1504619e-002
  1.2664310e-001  6.0212779e-002
  1.3390007e-001  6.1046109e-002
  1.3932679e-001  6.1050123e-002
  1.5283633e-001  6.9093422e-002
  1.7959447e-001  8.8937246e-002
  2.1582353e-001  1.1638680e-001
  2.5150320e-001  1.4273208e-001
  2.7780387e-001  1.6134960e-001
  2.9335666e-001  1.7222873e-001
  3.0452411e-001  1.8101158e-001
  3.1973199e-001  1.9375829e-001
  3.4242473e-001  2.1183839e-001
  3.6812101e-001  2.3096263e-001
  3.8752911e-001  2.4482146e-001
  3.9294835e-001  2.4997893e-001
  3.8287236e-001  2.4801254e-001
  3.6159511e-001  2.4325168e-001
  3.3473319e-001  2.3829094e-001
  3.0476501e-001  2.3118691e-001
  2.7022845e-001  2.1679617e-001
  2.2889549e-001  1.9114532e-001
  1.8179586e-001  1.5523624e-001
  1.3434166e-001  1.1520276e-001
  9.3380375e-002  7.8610952e-002
  6.2562328e-002  4.9836673e-002
  3.9950038e-002  2.8049620e-002
  1.9958738e-002  9.1354990e-003
 -1.9258897e-003 -1.0253785e-002
 -2.5374874e-002 -2.9850928e-002
 -4.5505484e-002 -4.6358465e-002
 -5.7036013e-002 -5.6657287e-002
 -5.8893637e-002 -6.0701803e-002
 -5.5525370e-002 -6.1646945e-002
 -5.3772474e-002 -6.3218744e-002
 -5.7826444e-002 -6.6574280e-002
 -6.6271860e-002 -6.9531089e-002
 -7.3546832e-002 -6.8784462e-002
 -7.4608694e-002 -6.3259491e-002
 -6.9061192e-002 -5.5706756e-002
 -6.1500149e-002 -5.0955284e-002
 -5.7788125e-002 -5.2155471e-002
 -6.0387882e-002 -5.8131579e-002
 -6.6460351e-002 -6.4047564e-002
 -7.0273311e-002 -6.5079753e-002
 -6.7879445e-002 -6.0097250e-002
 -6.0288639e-002 -5.2567732e-002
 -5.2629960e-002 -4.7703559e-002
 -5.0011167e-002 -4.8149641e-002
 -5.3409015e-002 -5.1669920e-002
 -5.8908052e-002 -5.2786052e-002
 -6.0861087e-002 -4.7165570e-002
 -5.6408110e-002 -3.5332609e-002
 -4.7752020e-002 -2.2763537e-002
 -4.0366857e-002 -1.6174380e-002
 -3.8672765e-002 -1.8741896e-002
 -4.2656493e-002 -2.7909101e-002
 -4.8058847e-002 -3.7321610e-002
 -4.9939476e-002 -4.1427767e-002
 -4.6683663e-002 -3.9240620e-002
 -4.1235665e-002 -3.4471519e-002
 -3.8607925e-002 -3.2192263e-002
 -4.1698345e-002 -3.4777517e-002
 -4.8839468e-002 -4.0251835e-002
 -5.5000415e-002 -4.4150438e-002
 -5.5743097e-002 -4.3252186e-002
 -5.0714068e-002 -3.8188378e-002
 -4.4006257e-002 -3.2918488e-002
 -4.1098779e-002 -3.1635053e-002
 -4.4777104e-002 -3.5657758e-002
 -5.3143805e-002 -4.2682529e-002
 -6.1200042e-002 -4.8844356e-002
 -6.4579666e-002 -5.1712408e-002
 -6.2542457e-002 -5.1858433e-002
 -5.8013187e-002 -5.1890292e-002
 -5.4921094e-002 -5.3952619e-002
 -5.5175452e-002 -5.7862842e-002
 -5.7616740e-002 -6.1419915e-002
 -5.9607930e-002 -6.2428905e-002
 -5.9681121e-002 -6.0705286e-002
 -5.8873953e-002 -5.8254790e-002
 -5.9682936e-002 -5.7596259e-002
 -6.3515559e-002 -5.9613371e-002
 -6.8995097e-002 -6.2871519e-002
 -7.2616202e-002 -6.4804463e-002
 -7.1351437e-002 -6.3885916e-002
 -6.5180434e-002 -6.0844838e-002
 -5.7420444e-002 -5.8020725e-002
 -5.2585871e-002 -5.7394377e-002
 -5.3332871e-002 -5.9015765e-002
 -5.8781829e-002 -6.1137705e-002
 -6.5385609e-002 -6.1844008e-002
 -6.9542022e-002 -6.0699978e-002
 -6.9882928e-002 -5.8997209e-002
 -6.7605165e-002 -5.8407569e-002
 -6.4940152e-002 -5.9319380e-002
 -6.3274591e-002 -6.0460209e-002
 -6.2467194e-002 -6.0136384e-002
 -6.1685799e-002 -5.8100807e-002
 -6.0746341e-002 -5.6222539e-002
 -6.0512725e-002 -5.7090585e-002
 -6.1926079e-002 -6.1623602e-002
 -6.4597059e-002 -6.7701001e-002
 -6.6473848e-002 -7.1228067e-002
 -6.5207889e-002 -6.9127232e-002
 -6.0225602e-002 -6.1985614e-002
 -5.3715811e-002 -5.4109210e-002
 -4.9466639e-002 -5.0661973e-002
 -5.0207136e-002 -5.3950774e-002
 -5.5458128e-002 -6.1565543e-002
 -6.1718649e-002 -6.8044740e-002
 -6.5011521e-002 -6.8894105e-002
 -6.3916632e-002 -6.3903059e-002
 -6.0644422e-002 -5.7237462e-002
 -5.9219010e-002 -5.4143983e-002
 -6.2120726e-002 -5.6953654e-002
 -6.8096493e-002 -6.3269857e-002
 -7.2918750e-002 -6.7907713e-002
 -7.2662664e-002 -6.6937157e-002
 -6.6953292e-002 -6.0689625e-002
 -5.9587011e-002 -5.3405052e-002
 -5.5909820e-002 -4.9818936e-002
 -5.8853516e-002 -5.1582495e-002
 -6.6688160e-002 -5.6171925e-002
 -7.4204339e-002 -5.9157695e-002
 -7.6459680e-002 -5.7813484e-002
 -7.2225769e-002 -5.3147138e-002
 -6.4622021e-002 -4.8743798e-002
 -5.8600934e-002 -4.7595537e-002
 -5.7383118e-002 -4.9592548e-002
 -6.0473620e-002 -5.1848160e-002
 -6.4672281e-002 -5.1456396e-002
 -6.6912866e-002 -4.8255259e-002
 -6.6505238e-002 -4.5057202e-002
 -6.5046248e-002 -4.5127414e-002
 -6.4417596e-002 -4.9050388e-002
 -6.4837705e-002 -5.3797190e-002
 -6.4774162e-002 -5.5077391e-002
 -6.2735888e-002 -5.1091905e-002
 -5.9167843e-002 -4.4482280e-002
 -5.6561218e-002 -4.0500700e-002
 -5.7421360e-002 -4.2720204e-002
 -6.1902344e-002 -4.9679293e-002
 -6.7253778e-002 -5.5499286e-002
 -6.9876233e-002 -5.4364674e-002
 -6.8463890e-002 -4.5465664e-002
 -6.5395008e-002 -3.4367452e-002
 -6.4949015e-002 -2.9190843e-002
 -6.9443320e-002 -3.4200305e-002
 -7.6516972e-002 -4.5877295e-002
 -8.0165988e-002 -5.4749983e-002
 -7.5196435e-002 -5.1989851e-002
 -6.1756837e-002 -3.5925011e-002
 -4.6094555e-002 -1.3444772e-002
 -3.6344194e-002  4.8420030e-003
 -3.6344562e-002  1.2151734e-002
 -4.2205126e-002  1.0079197e-002
 -4.4738074e-002  6.7357746e-003
 -3.6263250e-002  1.0105727e-002
 -1.6812005e-002  2.1828217e-002
  5.1982147e-003  3.6214681e-002
  1.8597160e-002  4.5013139e-002
  1.7347031e-002  4.3785207e-002
  4.6062788e-003  3.4702753e-002
 -1.0224398e-002  2.3682340e-002
 -1.9113896e-002  1.4578628e-002
 -2.1615885e-002  5.7154036e-003
 -2.4638232e-002 -8.1277913e-003
 -3.5897455e-002 -2.9817347e-002
 -5.6413918e-002 -5.5393301e-002
 -7.8414615e-002 -7.5406094e-002
 -9.0806853e-002 -8.1639685e-002
 -8.8089993e-002 -7.3880887e-002
 -7.5386064e-002 -6.0876691e-002
 -6.5041104e-002 -5.3976703e-002
 -6.7011225e-002 -5.8205622e-002
 -8.0660775e-002 -6.8083740e-002
 -9.4883434e-002 -7.2173553e-002
 -9.7123001e-002 -6.3196992e-002
 -8.4278186e-002 -4.5426343e-002
 -6.6419089e-002 -3.2543165e-002
 -5.9394745e-002 -3.6761632e-002
 -7.1526782e-002 -5.7507406e-002
 -9.5211245e-002 -7.9578734e-002
 -1.1131397e-001 -8.3747607e-002
 -1.0425816e-001 -6.2529604e-002
 -7.6227535e-002 -2.8256229e-002
 -4.7920805e-002 -4.9368484e-003
 -4.2476766e-002 -7.7436073e-003
 -6.2890779e-002 -2.4917593e-002
 -8.0494162e-002 -1.7891339e-002
 -4.6837998e-002  5.6143334e-002
  7.4742967e-002  2.1165192e-001
  2.7720433e-001  4.1430321e-001
  5.0041395e-001  5.8950792e-001
  6.5474225e-001  6.5874353e-001
  6.6694340e-001  5.8340127e-001
  5.2171520e-001  3.8902496e-001
  2.7315934e-001  1.5383804e-001
  1.8009524e-002 -3.2396221e-002
 -1.5399099e-001 -1.1454550e-001
 -2.0336878e-001 -9.5940566e-002
 -1.5342598e-001 -2.7284367e-002
 -6.7352599e-002  2.9552990e-002
 -7.0270974e-003  3.8494536e-002
  1.6669594e-004  4.5202578e-003
 -3.1914239e-002 -3.9100553e-002
 -6.7543917e-002 -5.9105796e-002
 -7.7870267e-002 -4.5171853e-002
 -5.8908909e-002 -1.3076527e-002
 -2.8931604e-002  1.0941629e-002
 -1.0808668e-002  1.0854288e-002
 -1.4225227e-002 -8.8477011e-003
 -3.0529570e-002 -2.9239488e-002
 -4.1954723e-002 -3.2864504e-002
 -3.6391733e-002 -1.6596151e-002
 -1.5971388e-002  7.6886444e-003
  6.1668443e-003  2.3611948e-002
  1.7050410e-002  2.2938192e-002
  1.3632838e-002  1.0649788e-002
  3.9018220e-003 -3.9432093e-004
 -4.4810984e-004 -1.0954976e-005
  6.7638371e-003  1.2162725e-002
  2.2373613e-002  2.7899970e-002
  3.7736864e-002  3.8054875e-002
  4.6426372e-002  3.9933476e-002
  4.9253211e-002  3.8591779e-002
  5.2910173e-002  4.1739607e-002
  6.3896472e-002  5.2997255e-002
  8.3107577e-002  6.9220846e-002
  1.0544111e-001  8.3695193e-002
  1.2444201e-001  9.2205687e-002
  1.3784276e-001  9.6673758e-002
  1.4945642e-001  1.0350043e-001
  1.6591502e-001  1.1808819e-001
  1.9114022e-001  1.4018245e-001
  2.2305082e-001  1.6396690e-001
  2.5508842e-001  1.8261982e-001
  2.8115020e-001  1.9367163e-001
  2.9990539e-001  2.0081299e-001
  3.1508551e-001  2.1081246e-001
  3.3175642e-001  2.2810113e-001
  3.5167215e-001  2.5120305e-001
  3.7136520e-001  2.7364160e-001
  3.8433158e-001  2.8835195e-001
  3.8534725e-001  2.9205669e-001
  3.7353338e-001  2.8640718e-001
  3.5199610e-001  2.7550590e-001
  3.2472509e-001  2.6220741e-001
  2.9359622e-001  2.4624968e-001
  2.5788207e-001  2.2536466e-001
  2.1641650e-001  1.9811932e-001
  1.7029385e-001  1.6583112e-001
  1.2366785e-001  1.3206574e-001
  8.1865705e-002  1.0033288e-001
  4.8364525e-002  7.2143908e-002
  2.3045601e-002  4.7026793e-002
  3.0980565e-003  2.4204459e-002
 -1.4301095e-002  4.2526043e-003
 -2.9772530e-002 -1.1043729e-002
 -4.1748242e-002 -2.0348622e-002
 -4.8525304e-002 -2.4604027e-002
 -5.0453701e-002 -2.6992607e-002
 -5.0302262e-002 -3.0888850e-002
 -5.1447020e-002 -3.7311642e-002
 -5.5363955e-002 -4.4046125e-002
 -6.0523233e-002 -4.7367182e-002
 -6.3653568e-002 -4.5158711e-002
 -6.2501495e-002 -3.8955015e-002
 -5.7837378e-002 -3.3230190e-002
 -5.3088932e-002 -3.2300421e-002
 -5.1891321e-002 -3.7064396e-002
 -5.5353051e-002 -4.4266177e-002
 -6.1262540e-002 -4.8817175e-002
 -6.5703914e-002 -4.7408907e-002
 -6.5850800e-002 -4.0789592e-002
 -6.1817449e-002 -3.2967531e-002
 -5.6250973e-002 -2.8156405e-002
 -5.2114674e-002 -2.7821871e-002
 -5.0570898e-002 -3.0055398e-002
 -5.0493809e-002 -3.1490010e-002
 -4.9836524e-002 -3.0078873e-002
 -4.7574039e-002 -2.6498875e-002
 -4.4585626e-002 -2.3178904e-002
 -4.2831523e-002 -2.1948396e-002
 -4.3561871e-002 -2.2338868e-002
 -4.6076357e-002 -2.1955220e-002
 -4.8085701e-002 -1.8560824e-002
 -4.7422557e-002 -1.2117283e-002
 -4.3720784e-002 -5.0495312e-003
 -3.8799084e-002 -5.9279436e-004
 -3.5452255e-002 -3.6560316e-004
 -3.5596487e-002 -3.2880839e-003
 -3.9108873e-002 -6.4627438e-003
 -4.4089039e-002 -7.4565371e-003
 -4.8260550e-002 -6.0900956e-003
 -5.0359991e-002 -4.4425166e-003
 -5.0614870e-002 -5.1371439e-003
 -5.0106249e-002 -9.2669934e-003
 -4.9747158e-002 -1.5513274e-002
 -4.9683557e-002 -2.1037752e-002
 -4.9466438e-002 -2.3412167e-002
 -4.8703357e-002 -2.2143647e-002
 -4.7582777e-002 -1.8871064e-002
 -4.6819932e-002 -1.6150393e-002
 -4.7145731e-002 -1.5817140e-002
 -4.8742785e-002 -1.8036465e-002
 -5.1112203e-002 -2.1449723e-002
 -5.3372737e-002 -2.4139851e-002
 -5.4727190e-002 -2.4741278e-002
 -5.4734607e-002 -2.3097430e-002
 -5.3390565e-002 -2.0283677e-002
 -5.1020611e-002 -1.8005500e-002
 -4.8228971e-002 -1.7804128e-002
 -4.5825841e-002 -2.0238637e-002
 -4.4666340e-002 -2.4451082e-002
 -4.5298157e-002 -2.8393729e-002
 -4.7562589e-002 -2.9778210e-002
 -5.0466895e-002 -2.7382153e-002
 -5.2516439e-002 -2.2030751e-002
 -5.2500101e-002 -1.6405895e-002
 -5.0247360e-002 -1.3633359e-002
 -4.6868038e-002 -1.5414368e-002
 -4.4212192e-002 -2.0830145e-002
 -4.3890692e-002 -2.6796867e-002
 -4.6343013e-002 -2.9905381e-002
 -5.0544321e-002 -2.8505407e-002
 -5.4563998e-002 -2.3696955e-002
 -5.6626671e-002 -1.8443417e-002
 -5.6089925e-002 -1.5574528e-002
 -5.3729425e-002 -1.6078738e-002
 -5.1248010e-002 -1.8849662e-002
 -5.0257989e-002 -2.1909138e-002
 -5.1327257e-002 -2.4044285e-002
 -5.3601268e-002 -2.5526392e-002
 -5.5244255e-002 -2.7453397e-002
 -5.4531249e-002 -3.0345627e-002
 -5.0967072e-002 -3.3292448e-002
 -4.5703374e-002 -3.4460686e-002
 -4.1044005e-002 -3.2615105e-002
 -3.9199448e-002 -2.8407845e-002
 -4.1038162e-002 -2.4365748e-002
 -4.5565307e-002 -2.3420603e-002
 -5.0537136e-002 -2.7008743e-002
 -5.3831763e-002 -3.4036043e-002
 -5.4651010e-002 -4.1473735e-002
 -5.3794052e-002 -4.6128649e-002
 -5.2800640e-002 -4.6333151e-002
 -5.2709060e-002 -4.2614933e-002
 -5.3295342e-002 -3.7015904e-002
 -5.3393153e-002 -3.1815259e-002
 -5.2010967e-002 -2.8441152e-002
 -4.9363643e-002 -2.7145095e-002
 -4.6867550e-002 -2.7288094e-002
 -4.6085676e-002 -2.7895904e-002
 -4.7419982e-002 -2.8124173e-002
 -4.9689866e-002 -2.7524824e-002
 -5.0949191e-002 -2.6277540e-002
 -4.9980298e-002 -2.5158658e-002
 -4.7266943e-002 -2.5131602e-002
 -4.4640225e-002 -2.6583683e-002
 -4.3794518e-002 -2.8734288e-002
 -4.4893866e-002 -2.9794402e-002
 -4.6473013e-002 -2.8104650e-002
 -4.6781448e-002 -2.3553053e-002
 -4.5352647e-002 -1.8137216e-002
 -4.3540557e-002 -1.5061535e-002
 -4.3382243e-002 -1.6601430e-002
 -4.5709689e-002 -2.2316322e-002
 -4.9112928e-002 -2.8868651e-002
 -5.0745353e-002 -3.2168090e-002
 -4.8601960e-002 -3.0295210e-002
 -4.3463464e-002 -2.5120173e-002
 -3.8717025e-002 -2.1097333e-002
 -3.7926982e-002 -2.1921109e-002
 -4.1915535e-002 -2.7485353e-002
 -4.7728566e-002 -3.3620354e-002
 -5.0557701e-002 -3.5087401e-002
 -4.7378177e-002 -2.9687710e-002
 -3.9548532e-002 -2.0349431e-002
 -3.2227178e-002 -1.3347264e-002
 -3.0762247e-002 -1.3791220e-002
 -3.6731332e-002 -2.1800284e-002
 -4.6657612e-002 -3.2346641e-002
 -5.4480324e-002 -3.8980024e-002
 -5.5990070e-002 -3.8675667e-002
 -5.1753098e-002 -3.3931013e-002
 -4.6296126e-002 -3.0451932e-002
 -4.4263534e-002 -3.2208519e-002
 -4.6674792e-002 -3.7971508e-002
 -5.0368641e-002 -4.2192459e-002
 -5.1092978e-002 -3.9756497e-002
 -4.7633300e-002 -3.0716705e-002
 -4.3349951e-002 -2.1065134e-002
 -4.3523550e-002 -1.8450396e-002
 -5.0529993e-002 -2.6016012e-002
 -6.0889285e-002 -3.9249002e-002
 -6.7039908e-002 -4.8579574e-002
 -6.2886600e-002 -4.6117012e-002
 -4.8920627e-002 -3.1442330e-002
 -3.2605578e-002 -1.1903031e-002
 -2.3198822e-002  2.8630156e-003
 -2.4668989e-002  7.9740365e-003
 -3.2213022e-002  6.5610620e-003
 -3.5430816e-002  6.6430556e-003
 -2.6088199e-002  1.4254924e-002
 -4.6682684e-003  2.8288945e-002
  1.9350618e-002  4.1226205e-002
  3.3956404e-002  4.4977884e-002
  3.2960826e-002  3.7089858e-002
  1.9930903e-002  2.2137245e-002
  4.6914323e-003  7.3075461e-003
 -4.7191797e-003 -3.8771287e-003
 -8.1731853e-003 -1.4267370e-002
 -1.2717669e-002 -2.9742816e-002
 -2.5700812e-002 -5.2553055e-002
 -4.7437011e-002 -7.7393563e-002
 -6.9732672e-002 -9.4102849e-002
 -8.1761546e-002 -9.5443916e-002
 -7.8687537e-002 -8.3563559e-002
 -6.5911514e-002 -6.9396426e-002
 -5.5112348e-002 -6.4628599e-002
 -5.5006786e-002 -7.2430997e-002
 -6.4353798e-002 -8.4613087e-002
 -7.3206154e-002 -8.8244420e-002
 -7.1739463e-002 -7.6943448e-002
 -5.9391950e-002 -5.7477027e-002
 -4.6320385e-002 -4.5440758e-002
 -4.5223262e-002 -5.2503890e-002
 -5.9762098e-002 -7.5233754e-002
 -7.9656237e-002 -9.5519865e-002
 -8.7795577e-002 -9.3885040e-002
 -7.4775014e-002 -6.6117778e-002
 -4.8904947e-002 -2.9281125e-002
 -3.1557291e-002 -9.9401900e-003
 -3.8686444e-002 -2.1112047e-002
 -6.1466268e-002 -4.5083281e-002
 -6.2650222e-002 -3.7797431e-002
  3.9495951e-003  4.3919389e-002
  1.6013300e-001  2.0827722e-001
  3.7793111e-001  4.1144988e-001
  5.8218069e-001  5.7262124e-001
  6.8436342e-001  6.1557048e-001
  6.3016782e-001  5.1254333e-001
  4.3216285e-001  3.0271942e-001
  1.6652707e-001  7.2555679e-002
 -6.5657797e-002 -9.0675461e-002
 -1.8992430e-001 -1.4381613e-001
 -1.9248746e-001 -1.0450644e-001
 -1.1815529e-001 -3.1738002e-002
 -3.6329984e-002  1.4707025e-002
  1.4539237e-003  8.7438153e-003
 -1.3828833e-002 -3.3962867e-002
 -5.4055218e-002 -7.5650983e-002
 -8.1149460e-002 -8.6779759e-002
 -7.5059264e-002 -6.5137703e-002
 -4.4063005e-002 -3.2467326e-002
 -1.3506566e-002 -1.4412231e-002
 -4.3229578e-003 -2.0683927e-002
 -1.8184071e-002 -3.9884876e-002
 -3.9014186e-002 -5.1124511e-002
 -4.7421360e-002 -4.1629597e-002
 -3.5692689e-002 -1.6447626e-002
 -1.2135876e-002  6.6463470e-003
  7.1711182e-003  1.1806658e-002
  1.1519469e-002 -2.6232939e-003
  3.0958399e-003 -2.3519670e-002
 -6.2166620e-003 -3.3684980e-002
 -5.1106720e-003 -2.4861880e-002
  8.4586826e-003 -3.0715298e-003
  2.6844262e-002  1.7259286e-002
  3.9928723e-002  2.4950782e-002
  4.3605366e-002  2.0223868e-002
  4.2630834e-002  1.3375670e-002
  4.6122456e-002  1.5844537e-002
  5.9840753e-002  3.1159297e-002
  8.1797334e-002  5.2858461e-002
  1.0450992e-001  7.0409807e-002
  1.2163646e-001  7.7872228e-002
  1.3330254e-001  7.8365649e-002
  1.4574958e-001  8.1064324e-002
  1.6588487e-001  9.3753276e-002
  1.9534116e-001  1.1687219e-001
  2.2894991e-001  1.4379294e-001
  2.5872245e-001  1.6650075e-001
  2.7998650e-001  1.8176662e-001
  2.9465694e-001  1.9283326e-001
  3.0909837e-001  2.0572179e-001
  3.2841396e-001  2.2355275e-001
  3.5183115e-001  2.4369609e-001
  3.7274284e-001  2.5991855e-001
  3.8323308e-001  2.6752737e-001
  3.7932857e-001  2.6701021e-001
  3.6299991e-001  2.6311640e-001
  3.3962931e-001  2.6021976e-001
  3.1336954e-001  2.5796579e-001
  2.8432476e-001  2.5090214e-001
  2.4964673e-001  2.3250211e-001
  2.0738988e-001  2.0043548e-001
  1.5966895e-001  1.5889520e-001
  1.1242892e-001  1.1635853e-001
  7.2018257e-002  8.0487275e-002
  4.1357217e-002  5.3854901e-002
  1.8656036e-002  3.3630465e-002
 -4.6308583e-004  1.4949839e-002
 -1.9265447e-002 -4.9015849e-003
 -3.7605950e-002 -2.4675261e-002
 -5.2671173e-002 -4.0718823e-002
 -6.1881222e-002 -5.0279516e-002
 -6.5372277e-002 -5.3656049e-002
 -6.6083091e-002 -5.3729637e-002
 -6.7526290e-002 -5.3607133e-002
 -7.1245250e-002 -5.4451111e-002
 -7.6011089e-002 -5.5357792e-002
 -7.9263953e-002 -5.5008418e-002
 -7.9402533e-002 -5.3407692e-002
 -7.6985479e-002 -5.2069912e-002
 -7.3978937e-002 -5.2594553e-002
 -7.1943064e-002 -5.4959555e-002
 -7.0851928e-002 -5.7231430e-002
 -6.9612878e-002 -5.6937944e-002
 -6.7575181e-002 -5.3073311e-002
 -6.5482454e-002 -4.6970030e-002
 -6.4864248e-002 -4.1321676e-002
 -6.6381080e-002 -3.8165098e-002
 -6.8700620e-002 -3.7533855e-002
 -6.9125517e-002 -3.7797185e-002
 -6.5737387e-002 -3.7317544e-002
 -5.9269008e-002 -3.5822037e-002
 -5.2970572e-002 -3.4428411e-002
 -5.0311326e-002 -3.4288608e-002
 -5.2229673e-002 -3.5253250e-002
 -5.6232798e-002 -3.5799533e-002
 -5.8225564e-002 -3.4388159e-002
 -5.5730416e-002 -3.1017315e-002
 -4.9975920e-002 -2.7513295e-002
 -4.5074771e-002 -2.6152237e-002
 -4.4803655e-002 -2.7723200e-002
 -4.9480381e-002 -3.0691441e-002
 -5.5501539e-002 -3.2366379e-002
 -5.8005856e-002 -3.1124398e-002
 -5.4644348e-002 -2.7887638e-002
 -4.7496478e-002 -2.5592310e-002
 -4.1582729e-002 -2.6867673e-002
 -4.1119293e-002 -3.1844260e-002
 -4.6396513e-002 -3.7877544e-002
 -5.3694562e-002 -4.1507542e-002
 -5.8247067e-002 -4.1113332e-002
 -5.7910028e-002 -3.8086100e-002
 -5.4646626e-002 -3.5674353e-002
 -5.2692758e-002 -3.6322586e-002
 -5.5010122e-002 -3.9726704e-002
 -6.0894086e-002 -4.3127885e-002
 -6.6609875e-002 -4.3659994e-002
 -6.8478989e-002 -4.0768387e-002
 -6.5870488e-002 -3.6754033e-002
 -6.1704211e-002 -3.5019701e-002
 -6.0071080e-002 -3.7476080e-002
 -6.2949236e-002 -4.3115332e-002
 -6.8645017e-002 -4.8928291e-002
 -7.3143490e-002 -5.2170896e-002
 -7.3261101e-002 -5.2221073e-002
 -6.8992081e-002 -5.0579678e-002
 -6.3311655e-002 -4.9245124e-002
 -5.9732286e-002 -4.9001908e-002
 -5.9709688e-002 -4.9171707e-002
 -6.1880067e-002 -4.8789842e-002
 -6.3662060e-002 -4.8003049e-002
 -6.3659361e-002 -4.8164718e-002
 -6.2793979e-002 -5.0479982e-002
 -6.3213997e-002 -5.4436316e-002
 -6.6093168e-002 -5.7622573e-002
 -7.0296228e-002 -5.7468255e-002
 -7.3100088e-002 -5.3489347e-002
 -7.2428960e-002 -4.8147523e-002
 -6.8643239e-002 -4.5265152e-002
 -6.4395116e-002 -4.7075777e-002
 -6.2562934e-002 -5.2301951e-002
 -6.4003068e-002 -5.7009855e-002
 -6.7018608e-002 -5.7747959e-002
 -6.8961373e-002 -5.4490543e-002
 -6.8602215e-002 -5.0842897e-002
 -6.7144779e-002 -5.1164540e-002
 -6.7043741e-002 -5.6768244e-002
 -6.9577364e-002 -6.4416517e-002
 -7.3302062e-002 -6.8535834e-002
 -7.4827373e-002 -6.5627681e-002
 -7.1484128e-002 -5.7351395e-002
 -6.3758967e-002 -4.9533091e-002
 -5.5491474e-002 -4.7744980e-002
 -5.1426528e-002 -5.2772924e-002
 -5.3943090e-002 -5.9702508e-002
 -6.1401079e-002 -6.1638251e-002
 -6.9321173e-002 -5.5252374e-002
 -7.3439908e-002 -4.3784508e-002
 -7.2403488e-002 -3.4987730e-002
 -6.8188996e-002 -3.5314725e-002
 -6.4175380e-002 -4.4876589e-002
 -6.2596746e-002 -5.7243158e-002
 -6.3377106e-002 -6.4198405e-002
 -6.4915849e-002 -6.1866133e-002
 -6.5796380e-002 -5.3441007e-002
 -6.5887309e-002 -4.6352643e-002
 -6.5941991e-002 -4.6255836e-002
 -6.6411041e-002 -5.2553861e-002
 -6.6691131e-002 -5.9045749e-002
 -6.5671104e-002 -5.9280318e-002
 -6.3011317e-002 -5.2078767e-002
 -5.9864671e-002 -4.2754499e-002
 -5.8106142e-002 -3.8890915e-002
 -5.8707375e-002 -4.4160967e-002
 -6.0692994e-002 -5.5126117e-002
 -6.1896326e-002 -6.3804987e-002
 -6.0915132e-002 -6.3970754e-002
 -5.8601695e-002 -5.6061162e-002
 -5.7481256e-002 -4.6742161e-002
 -5.9414577e-002 -4.3343868e-002
 -6.3418573e-002 -4.7760554e-002
 -6.5827869e-002 -5.4850604e-002
 -6.3059883e-002 -5.6580804e-002
 -5.4911351e-002 -4.8582442e-002
 -4.5425889e-002 -3.3710983e-002
 -4.0055048e-002 -1.9591746e-002
 -4.1011860e-002 -1.2197058e-002
 -4.4638982e-002 -1.0808657e-002
 -4.3389584e-002 -8.7508834e-003
 -3.1591647e-002  5.9301809e-004
 -1.0667861e-002  1.7440487e-002
  1.0509590e-002  3.4430879e-002
  2.1149375e-002  4.1748833e-002
  1.6191020e-002  3.4633954e-002
  1.9266836e-004  1.7030455e-002
 -1.5836039e-002 -1.6865419e-003
 -2.2699976e-002 -1.4421759e-002
 -2.0084577e-002 -2.1986901e-002
 -1.6762495e-002 -3.1706196e-002
 -2.3430565e-002 -5.0062015e-002
 -4.3537194e-002 -7.5508990e-002
 -6.9460257e-002 -9.7997745e-002
 -8.7516392e-002 -1.0630256e-001
 -8.8292698e-002 -9.7472705e-002
 -7.4260967e-002 -8.0448019e-002
 -5.8376313e-002 -7.0071756e-002
 -5.4302758e-002 -7.5514874e-002
 -6.5754309e-002 -9.2510030e-002
 -8.3511540e-002 -1.0612549e-001
 -9.2899777e-002 -1.0285039e-001
 -8.6032698e-002 -8.2441074e-002
 -6.8848690e-002 -5.9573835e-002
 -5.6683785e-002 -5.2857992e-002
 -6.1400442e-002 -6.9262605e-002
 -8.0419936e-002 -9.6647952e-002
 -9.7463954e-002 -1.1173263e-001
 -9.5627795e-002 -9.8489828e-002
 -7.2791692e-002 -6.2613233e-002
 -4.5901304e-002 -2.8897299e-002
 -3.8097771e-002 -2.1083802e-002
 -5.6326013e-002 -3.8090273e-002
 -7.6774104e-002 -4.6194106e-002
 -5.2516143e-002  3.0420730e-003
  5.7045850e-002  1.3781729e-001
  2.5241070e-001  3.3733613e-001
  4.7976640e-001  5.3153241e-001
  6.5001799e-001  6.3405120e-001
  6.8355465e-001  5.9051400e-001
  5.5516321e-001  4.1210235e-001
  3.1120318e-001  1.7224261e-001
  4.7211870e-002 -3.2739461e-002
 -1.4138515e-001 -1.3503191e-001
 -2.0631414e-001 -1.2751632e-001
 -1.6414090e-001 -5.8448863e-002
 -7.6727886e-002  5.0505785e-003
 -9.6426265e-003  1.9317435e-002
  4.3013471e-003 -1.4760342e-002
 -2.4579810e-002 -6.2197646e-002
 -6.0601624e-002 -8.4753534e-002
 -7.2515660e-002 -6.8658873e-002
 -5.3941531e-002 -3.0884942e-002
 -2.2580112e-002 -2.5150044e-003
 -2.5427969e-003 -4.0389710e-003
 -5.1627574e-003 -3.1274696e-002
 -2.2374910e-002 -6.0902103e-002
 -3.5620821e-002 -6.9473265e-002
 -3.1506553e-002 -5.0510883e-002
 -1.1559623e-002 -1.7461421e-002
  1.0580415e-002  8.1491783e-003
  2.0972628e-002  1.3105301e-002
  1.6199121e-002  8.3779825e-004
  4.9471587e-003 -1.3427235e-002
  1.6427490e-004 -1.5599206e-002
  8.7433768e-003 -3.0932988e-003
  2.6955016e-002  1.4911712e-002
  4.4560722e-002  2.6303331e-002
  5.3551962e-002  2.6037434e-002
  5.4269082e-002  1.9477415e-002
  5.4338223e-002  1.7073105e-002
  6.1972362e-002  2.5595888e-002
  7.9500513e-002  4.3172620e-002
  1.0229790e-001  6.1785790e-002
  1.2340250e-001  7.4498152e-002
  1.3956029e-001  8.1171361e-002
  1.5358055e-001  8.8016042e-002
  1.7131663e-001  1.0181583e-001
  1.9616916e-001  1.2398155e-001
  2.2590959e-001  1.4936761e-001
  2.5448463e-001  1.7063236e-001
  2.7715907e-001  1.8425368e-001
  2.9447980e-001  1.9316318e-001
  3.1161746e-001  2.0387740e-001
  3.3357274e-001  2.2080668e-001
  3.6014203e-001  2.4238584e-001
  3.8483550e-001  2.6220159e-001
  3.9870318e-001  2.7396414e-001
  3.9616113e-001  2.7602376e-001
  3.7836917e-001  2.7177174e-001
  3.5169021e-001  2.6579917e-001
  3.2265595e-001  2.5935545e-001
  2.9357639e-001  2.4903862e-001
  2.6206501e-001  2.2984893e-001
  2.2451805e-001  2.0002103e-001
  1.8041467e-001  1.6347966e-001
  1.3389102e-001  1.2768517e-001
  9.1435350e-002  9.8580740e-002
  5.7702584e-002  7.6768783e-002
  3.2871605e-002  5.7951794e-002
  1.3513389e-002  3.7248841e-002
 -3.9906852e-003  1.3706345e-002
 -2.0512729e-002 -8.7187981e-003
 -3.4111206e-002 -2.4486945e-002
 -4.2619670e-002 -3.1306284e-002
 -4.6368738e-002 -3.2353459e-002
 -4.8590209e-002 -3.3965577e-002
 -5.2991681e-002 -4.0579082e-002
 -6.0626671e-002 -5.1152056e-002
 -6.8772036e-002 -6.0022691e-002
 -7.2971653e-002 -6.1590884e-002
 -7.0726435e-002 -5.5081886e-002
 -6.3781972e-002 -4.5559439e-002
 -5.7109373e-002 -4.0217039e-002
 -5.5275722e-002 -4.2925922e-002
 -5.9043473e-002 -5.1246575e-002
 -6.4895788e-002 -5.8406600e-002
 -6.7856860e-002 -5.8491180e-002
 -6.5308400e-002 -5.0847710e-002
 -5.8878396e-002 -4.0358583e-002
 -5.2993134e-002 -3.3543114e-002
 -5.1327917e-002 -3.3728188e-002
 -5.4047393e-002 -3.8949318e-002
 -5.7902249e-002 -4.3936127e-002
 -5.9019385e-002 -4.4538951e-002
 -5.5993114e-002 -4.0712934e-002
 -5.0834304e-002 -3.5936367e-002
 -4.7195312e-002 -3.3789700e-002
 -4.7358924e-002 -3.4812458e-002
 -5.0537272e-002 -3.6268621e-002
 -5.3724091e-002 -3.4849276e-002
 -5.4263324e-002 -2.9826513e-002
 -5.1900354e-002 -2.3871195e-002
 -4.8644354e-002 -2.0794416e-002
 -4.6788811e-002 -2.2221213e-002
 -4.6850764e-002 -2.6055895e-002
 -4.7312111e-002 -2.8223570e-002
 -4.6256303e-002 -2.6259626e-002
 -4.3444611e-002 -2.1568098e-002
 -4.0918780e-002 -1.8436618e-002
 -4.1424603e-002 -2.0403670e-002
 -4.5978688e-002 -2.7048368e-002
 -5.2632072e-002 -3.4022468e-002
 -5.7657811e-002 -3.6381941e-002
 -5.8281803e-002 -3.2665664e-002
 -5.4833522e-002 -2.6360263e-002
 -5.0547727e-002 -2.3322971e-002
 -4.9095753e-002 -2.7155999e-002
 -5.1807056e-002 -3.6232828e-002
 -5.6675400e-002 -4.4784852e-002
 -5.9978801e-002 -4.7348533e-002
 -5.9170575e-002 -4.2939675e-002
 -5.4767474e-002 -3.5802148e-002
 -4.9857953e-002 -3.1982397e-002
 -4.7700525e-002 -3.4534309e-002
 -4.9434757e-002 -4.1161363e-002
 -5.3589539e-002 -4.6187068e-002
 -5.7579997e-002 -4.5233362e-002
 -5.9751705e-002 -3.8754644e-002
 -6.0300520e-002 -3.1631944e-002
 -6.0395131e-002 -2.9183142e-002
 -6.0576123e-002 -3.2836196e-002
 -5.9994397e-002 -3.9004852e-002
 -5.7296330e-002 -4.2086458e-002
 -5.2379681e-002 -3.9088610e-002
 -4.7272937e-002 -3.2143749e-002
 -4.5161686e-002 -2.6769867e-002
 -4.8104189e-002 -2.7290090e-002
 -5.5195626e-002 -3.3179444e-002
 -6.2771133e-002 -3.9336174e-002
 -6.6678896e-002 -4.0124518e-002
 -6.5003751e-002 -3.3941632e-002
 -5.9191559e-002 -2.4660980e-002
 -5.2865626e-002 -1.8804922e-002
 -4.9271367e-002 -2.0532441e-002
 -4.9373532e-002 -2.8494285e-002
 -5.1867850e-002 -3.6913753e-002
 -5.4774730e-002 -4.0100122e-002
 -5.7066471e-002 -3.6724632e-002
 -5.8971342e-002 -3.0576757e-002
 -6.0910141e-002 -2.7352470e-002
 -6.2336328e-002 -3.0169631e-002
 -6.1834336e-002 -3.7328803e-002
 -5.8517345e-002 -4.3922157e-002
 -5.3455805e-002 -4.5826386e-002
 -4.9529940e-002 -4.2807307e-002
 -4.9497509e-002 -3.8254983e-002
 -5.3629759e-002 -3.6042262e-002
 -5.9039013e-002 -3.7281439e-002
 -6.1523322e-002 -3.9737355e-002
 -5.8809691e-002 -4.0141644e-002
 -5.2629402e-002 -3.7330675e-002
 -4.7712682e-002 -3.3385007e-002
 -4.8281461e-002 -3.1793444e-002
 -5.4640706e-002 -3.4270839e-002
 -6.2626319e-002 -3.8970642e-002
 -6.6512634e-002 -4.1695211e-002
 -6.3275188e-002 -3.9321903e-002
 -5.4938308e-002 -3.2565290e-002
 -4.7125446e-002 -2.5706998e-002
 -4.4910442e-002 -2.3449710e-002
 -4.9056856e-002 -2.7311837e-002
 -5.5630487e-002 -3.4444113e-002
 -5.9249277e-002 -3.9807805e-002
 -5.7322751e-002 -3.9959981e-002
 -5.1959826e-002 -3.5490968e-002
 -4.8066239e-002 -3.0198691e-002
 -4.9239852e-002 -2.7875527e-002
 -5.4858994e-002 -2.9457198e-002
 -6.0711798e-002 -3.2742774e-002
 -6.2544556e-002 -3.4697938e-002
 -5.9585094e-002 -3.4102984e-002
 -5.5064745e-002 -3.2357226e-002
 -5.3316499e-002 -3.1714979e-002
 -5.5937703e-002 -3.2830145e-002
 -6.0341511e-002 -3.3905060e-002
 -6.1964375e-002 -3.2421047e-002
 -5.8320184e-002 -2.7922519e-002
 -5.1394174e-002 -2.3154640e-002
 -4.6257355e-002 -2.2223266e-002
 -4.6886707e-002 -2.7041512e-002
 -5.2669300e-002 -3.5086946e-002
 -5.8689002e-002 -4.0684929e-002
 -5.9768547e-002 -3.9241334e-002
 -5.4925120e-002 -3.1096883e-002
 -4.8467019e-002 -2.1834067e-002
 -4.6547006e-002 -1.8297983e-002
 -5.1814759e-002 -2.3279266e-002
 -6.0686087e-002 -3.2969390e-002
 -6.5727568e-002 -3.9533918e-002
 -6.1522733e-002 -3.6824794e-002
 -4.9350957e-002 -2.4931010e-002
 -3.6568452e-002 -9.9755210e-003
 -3.0877962e-002  7.2587356e-004
 -3.3895957e-002  4.3089220e-003
 -3.9352965e-002  4.3575104e-003
 -3.7760733e-002  7.5508350e-003
 -2.4100272e-002  1.7854957e-002
 -2.4591901e-003  3.2929682e-002
  1.6386974e-002  4.5745615e-002
  2.2823546e-002  4.9954286e-002
  1.5632685e-002  4.4554501e-002
  2.6987049e-003  3.3959447e-002
 -5.5685250e-003  2.3560378e-002
 -4.9112084e-003  1.4720379e-002
 -8.9971090e-004  3.8080553e-003
 -4.3336133e-003 -1.3665631e-002
 -2.1788686e-002 -3.7331095e-002
 -4.9043445e-002 -5.9975788e-002
 -7.3072121e-002 -7.1815784e-002
 -8.1566001e-002 -6.8084087e-002
 -7.2679857e-002 -5.3712747e-002
 -5.6919941e-002 -4.0683150e-002
 -4.9249270e-002 -3.9370947e-002
 -5.7279189e-002 -5.0474190e-002
 -7.5076118e-002 -6.4315741e-002
 -8.7923883e-002 -6.8719954e-002
 -8.4611466e-002 -5.9477350e-002
 -6.7332772e-002 -4.4642330e-002
 -5.0709600e-002 -3.8360188e-002
 -4.9920348e-002 -4.8566588e-002
 -6.7306216e-002 -6.8572726e-002
 -8.8913184e-002 -8.0573122e-002
 -9.5106428e-002 -6.9720289e-002
 -7.7598923e-002 -3.8067729e-002
 -4.8669410e-002 -5.9689667e-003
 -3.2892061e-002  2.9858037e-003
 -4.5115341e-002 -1.5970017e-002
 -7.0891510e-002 -3.6881645e-002
 -6.6689207e-002 -1.3700914e-002
  1.5185232e-002  8.9621466e-002
  1.9055783e-001  2.6818101e-001
  4.2059102e-001  4.6671434e-001
  6.2109488e-001  6.0214068e-001
  7.0281123e-001  6.0759797e-001
  6.2047511e-001  4.7179180e-001
  4.0060362e-001  2.4849624e-001
  1.2989694e-001  2.8956154e-002
 -8.9766703e-002 -1.0669349e-001
 -1.9292329e-001 -1.2966095e-001
 -1.7848013e-001 -7.0930024e-002
 -9.9493459e-002  4.9100593e-003
 -2.4580433e-002  4.1646114e-002
  2.8853780e-003  2.2131948e-002
 -1.6982529e-002 -2.9678792e-002
 -5.2358826e-002 -7.2654802e-002
 -6.8986864e-002 -7.9046257e-002
 -5.4761079e-002 -5.0852842e-002
 -2.4015444e-002 -1.3305617e-002
 -1.9923774e-003  6.5622691e-003
 -3.7805375e-003 -8.8911144e-004
 -2.3898794e-002 -2.4019419e-002
 -4.2825998e-002 -4.1858204e-002
 -4.3481272e-002 -4.0879542e-002
 -2.4131905e-002 -2.3648477e-002
  1.6810399e-003 -4.1053748e-003
  1.6879628e-002  4.9844731e-003
  1.4237678e-002  1.7494418e-003
  1.0521034e-003 -5.0089628e-003
 -7.6721501e-003 -4.6034068e-003
 -1.3094463e-003  6.2394779e-003
  1.8706703e-002  2.1177802e-002
  4.1079543e-002  3.0333730e-002
  5.4171831e-002  2.9039369e-002
  5.4951869e-002  2.1769306e-002
  5.0565697e-002  1.8262898e-002
  5.1975381e-002  2.5395887e-002
  6.5340939e-002  4.1793338e-002
  8.7941177e-002  5.9383650e-002
  1.1142637e-001  7.0466674e-002
  1.2908071e-001  7.4121385e-002
  1.4096660e-001  7.6793086e-002
  1.5310367e-001  8.6600737e-002
  1.7191984e-001  1.0637930e-001
  1.9881790e-001  1.3126200e-001
  2.2934599e-001  1.5281353e-001
  2.5720482e-001  1.6607895e-001
  2.7945390e-001  1.7366791e-001
  2.9832509e-001  1.8332776e-001
  3.1836545e-001  2.0110728e-001
  3.4147293e-001  2.2565274e-001
  3.6424208e-001  2.4860700e-001
  3.7991059e-001  2.6090873e-001
  3.8321309e-001  2.5994022e-001
  3.7410189e-001  2.5165298e-001
  3.5717143e-001  2.4566150e-001
  3.3736746e-001  2.4715603e-001
  3.1560044e-001  2.5199486e-001
  2.8817150e-001  2.4909307e-001
  2.5054686e-001  2.2848621e-001
  2.0247591e-001  1.8907708e-001
  1.5004606e-001  1.4016338e-001
  1.0276078e-001  9.5494817e-002
  6.7640740e-002  6.4436438e-002
  4.4832279e-002  4.6659425e-002
  2.8125259e-002  3.4127129e-002
  1.0031776e-002  1.8246525e-002
 -1.2546334e-002 -3.4401265e-003
 -3.6297058e-002 -2.6044614e-002
 -5.4527250e-002 -4.1965835e-002
 -6.2629415e-002 -4.7362269e-002
 -6.1724881e-002 -4.5216822e-002
 -5.7719491e-002 -4.2698588e-002
 -5.6799778e-002 -4.5335161e-002
 -6.1010111e-002 -5.2718104e-002
 -6.7384920e-002 -5.9425579e-002
 -7.1105400e-002 -6.0025065e-002
 -6.9863804e-002 -5.3944883e-002
 -6.5784514e-002 -4.6191444e-002
 -6.3444329e-002 -4.3270543e-002
 -6.5751542e-002 -4.7798556e-002
 -7.1290188e-002 -5.6162740e-002
 -7.5352658e-002 -6.1285098e-002
 -7.3840786e-002 -5.8225352e-002
 -6.6797125e-002 -4.8184648e-002
 -5.8594864e-002 -3.7615636e-002
 -5.4581535e-002 -3.3247907e-002
 -5.6857928e-002 -3.7004709e-002
 -6.2664664e-002 -4.4694640e-002
 -6.6666068e-002 -4.9508899e-002
 -6.5295608e-002 -4.7385612e-002
 -5.9581225e-002 -4.0008717e-002
 -5.4164358e-002 -3.3139687e-002
 -5.3320561e-002 -3.1795502e-002
 -5.7238608e-002 -3.6207974e-002
 -6.1674082e-002 -4.1872888e-002
 -6.1353965e-002 -4.3372204e-002
 -5.4459761e-002 -3.8865847e-002
 -4.4549893e-002 -3.1603409e-002
 -3.8207956e-002 -2.7256537e-002
 -4.0128958e-002 -2.9313549e-002
 -4.9418797e-002 -3.6283310e-002
 -6.0004740e-002 -4.2865910e-002
 -6.4898752e-002 -4.4211626e-002
 -6.1181649e-002 -3.9599858e-002
 -5.1973731e-002 -3.2830027e-002
 -4.4058172e-002 -2.9077937e-002
 -4.2991548e-002 -3.0869415e-002
 -4.9375946e-002 -3.6388093e-002
 -5.8938536e-002 -4.1331816e-002
 -6.6001961e-002 -4.2608165e-002
 -6.7525042e-002 -4.0797352e-002
 -6.4755247e-002 -3.9355541e-002
 -6.1525022e-002 -4.1390433e-002
 -6.0928062e-002 -4.6776818e-002
 -6.3091006e-002 -5.2071012e-002
 -6.5641473e-002 -5.3240981e-002
 -6.6137097e-002 -4.8923723e-002
 -6.4247251e-002 -4.1627451e-002
 -6.1860783e-002 -3.5830762e-002
 -6.1308259e-002 -3.4675815e-002
 -6.3274681e-002 -3.7837705e-002
 -6.6320487e-002 -4.2251179e-002
 -6.8232567e-002 -4.4906048e-002
 -6.7950968e-002 -4.5167524e-002
 -6.6337715e-002 -4.4842067e-002
 -6.5141936e-002 -4.6007671e-002
 -6.5185532e-002 -4.8766453e-002
 -6.5538883e-002 -5.0926888e-002
 -6.4491293e-002 -4.9947277e-002
 -6.1478914e-002 -4.5511514e-002
 -5.8150846e-002 -4.0272983e-002
 -5.7410323e-002 -3.7970821e-002
 -6.1092924e-002 -4.0377547e-002
 -6.8105898e-002 -4.5691512e-002
 -7.4799896e-002 -4.9834745e-002
 -7.7485549e-002 -4.9739691e-002
 -7.5191015e-002 -4.5904699e-002
 -7.0402820e-002 -4.2019833e-002
 -6.7091927e-002 -4.1933464e-002
 -6.7533308e-002 -4.6368855e-002
 -7.0480497e-002 -5.2158927e-002
 -7.2217714e-002 -5.4848703e-002
 -6.9706649e-002 -5.2476324e-002
 -6.3289606e-002 -4.7379292e-002
 -5.6694690e-002 -4.4342823e-002
 -5.4198020e-002 -4.6482835e-002
 -5.7234831e-002 -5.2359500e-002
 -6.3156593e-002 -5.6773471e-002
 -6.7276113e-002 -5.4914575e-002
 -6.6566644e-002 -4.6639281e-002
 -6.2081783e-002 -3.7154898e-002
 -5.8102840e-002 -3.3418281e-002
 -5.8683132e-002 -3.8674757e-002
 -6.4328097e-002 -4.9733704e-002
 -7.1565196e-002 -5.9047874e-002
 -7.5639187e-002 -6.0285562e-002
 -7.4227645e-002 -5.2995227e-002
 -6.9148442e-002 -4.2783648e-002
 -6.4690914e-002 -3.6884718e-002
 -6.4019020e-002 -3.8496399e-002
 -6.6599667e-002 -4.4451469e-002
 -6.8860123e-002 -4.8190353e-002
 -6.7459812e-002 -4.5458112e-002
 -6.2418008e-002 -3.8064618e-002
 -5.7348442e-002 -3.2453745e-002
 -5.6523797e-002 -3.4240219e-002
 -6.1139189e-002 -4.3255747e-002
 -6.8017951e-002 -5.3224046e-002
 -7.1954602e-002 -5.6617527e-002
 -6.9909899e-002 -5.0772797e-002
 -6.3527802e-002 -4.0277539e-002
 -5.7771111e-002 -3.3345626e-002
 -5.6731504e-002 -3.4993614e-002
 -6.0073772e-002 -4.2644204e-002
 -6.3180318e-002 -4.7899390e-002
 -6.1093398e-002 -4.3335663e-002
 -5.2974007e-002 -2.8797626e-002
 -4.3221495e-002 -1.1954889e-002
 -3.7910120e-002 -2.2954004e-003
 -3.9328586e-002 -3.2495041e-003
 -4.3213674e-002 -8.8612316e-003
 -4.1449953e-002 -8.2172361e-003
 -2.8561919e-002  5.6359443e-003
 -6.9644931e-003  2.9242368e-002
  1.3547167e-002  5.0257190e-002
  2.2250582e-002  5.6194913e-002
  1.5199057e-002  4.3559512e-002
 -1.7838553e-003  2.0425187e-002
 -1.7518104e-002 -1.5591501e-006
 -2.4080486e-002 -9.7336480e-003
 -2.2893807e-002 -1.2043204e-002
 -2.3324991e-002 -1.8083169e-002
 -3.4678170e-002 -3.6727059e-002
 -5.7782567e-002 -6.5865312e-002
 -8.3148254e-002 -9.2645182e-002
 -9.7507076e-002 -1.0285503e-001
 -9.3989514e-002 -9.2364097e-002
 -7.7802610e-002 -7.1171165e-002
 -6.2609234e-002 -5.6300657e-002
 -6.0179224e-002 -5.8788419e-002
 -7.1322932e-002 -7.5007002e-002
 -8.5578104e-002 -8.9739171e-002
 -9.0100465e-002 -8.8895248e-002
 -8.0752340e-002 -7.1768718e-002
 -6.6071249e-002 -5.2418720e-002
 -6.0330781e-002 -4.8368653e-002
 -7.0896000e-002 -6.5362993e-002
 -9.0523635e-002 -9.0834799e-002
 -1.0193488e-001 -1.0270113e-001
 -9.2212182e-002 -8.7489448e-002
 -6.5532914e-002 -5.3069218e-002
 -4.2406173e-002 -2.4015101e-002
 -4.3206174e-002 -2.0678733e-002
 -6.6838900e-002 -3.7106348e-002
 -8.1730132e-002 -3.6603961e-002
 -3.9916615e-002  2.7443419e-002
  9.1043453e-002  1.7644137e-001
  2.9825597e-001  3.8115010e-001
  5.1755438e-001  5.6643977e-001
  6.5986920e-001  6.4788944e-001
  6.5719079e-001  5.7972787e-001
  5.0134859e-001  3.8402786e-001
  2.5135670e-001  1.4141854e-001
  3.8326227e-003 -5.2071033e-002
 -1.5641968e-001 -1.3584496e-001
 -1.9652180e-001 -1.1246016e-001
 -1.4405356e-001 -3.6898859e-002
 -6.1891045e-002  2.3018119e-002
 -7.7916032e-003  2.8015844e-002
 -4.3845766e-003 -1.5245202e-002
 -3.5638941e-002 -6.8358014e-002
 -6.7368605e-002 -9.3267521e-002
 -7.4410701e-002 -7.8359943e-002
 -5.5678204e-002 -4.1921675e-002
 -2.9415800e-002 -1.3981963e-002
 -1.5662806e-002 -1.2533997e-002
 -2.0730288e-002 -3.2020470e-002
 -3.4590504e-002 -5.0976840e-002
 -4.1177148e-002 -5.0765234e-002
 -3.1951736e-002 -2.9961501e-002
 -1.1978949e-002 -3.8778039e-003
  5.3219551e-003  8.9324586e-003
  9.4878157e-003  1.6352744e-003
  1.0573756e-003 -1.6211641e-002
 -9.5586039e-003 -2.7157199e-002
 -1.0674579e-002 -2.0015448e-002
  1.8879228e-003  1.7190644e-003
  2.2530810e-002  2.3425679e-002
  4.1168319e-002  3.1436835e-002
  5.1297577e-002  2.3743116e-002
  5.4302931e-002  1.1134299e-002
  5.7188473e-002  8.3744822e-003
  6.6251508e-002  2.2837139e-002
  8.2208929e-002  4.9330968e-002
  1.0056732e-001  7.4781896e-002
  1.1633184e-001  8.8510355e-002
  1.2873067e-001  8.9970879e-002
  1.4192361e-001  8.8218650e-002
  1.6125722e-001  9.4230665e-002
  1.8844980e-001  1.1253067e-001
  2.1983351e-001  1.3856113e-001
  2.4907071e-001  1.6319495e-001
  2.7203898e-001  1.8022646e-001
  2.8975273e-001  1.9062800e-001
  3.0693659e-001  2.0062596e-001
  3.2746171e-001  2.1564976e-001
  3.5050493e-001  2.3549056e-001
  3.7049317e-001  2.5452644e-001
  3.8084176e-001  2.6644105e-001
  3.7840463e-001  2.6912334e-001
  3.6508320e-001  2.6562125e-001
  3.4545413e-001  2.6050207e-001
  3.2258634e-001  2.5506642e-001
  2.9564186e-001  2.4562172e-001
  2.6130196e-001  2.2653833e-001
  2.1775045e-001  1.9555696e-001
  1.6787199e-001  1.5690488e-001
  1.1885921e-001  1.1936515e-001
  7.8283408e-002  9.0473366e-002
  4.9600226e-002  7.1427004e-002
  3.0411713e-002  5.6636746e-002
  1.4755599e-002  3.8345044e-002
 -2.3854306e-003  1.2838693e-002
 -2.1800431e-002 -1.6455417e-002
 -4.0224195e-002 -4.1260530e-002
 -5.3475017e-002 -5.4305551e-002
 -5.9886186e-002 -5.4431688e-002
 -6.1382712e-002 -4.7197183e-002
 -6.1645987e-002 -4.0864333e-002
 -6.3179910e-002 -4.0978883e-002
 -6.5708430e-002 -4.7445954e-002
 -6.7098826e-002 -5.5803722e-002
 -6.5752149e-002 -6.1139815e-002
 -6.2325813e-002 -6.1522710e-002
 -5.9262453e-002 -5.8556437e-002
 -5.8689649e-002 -5.5217626e-002
 -6.0546677e-002 -5.3143355e-002
 -6.2586818e-002 -5.1733661e-002
 -6.2235407e-002 -4.9421070e-002
 -5.8737833e-002 -4.5650065e-002
 -5.3776994e-002 -4.1634970e-002
 -5.0059545e-002 -3.9339617e-002
 -4.9109179e-002 -3.9657999e-002
 -5.0147511e-002 -4.1425246e-002
 -5.0899387e-002 -4.2182496e-002
 -4.9657801e-002 -4.0102907e-002
 -4.6846493e-002 -3.5423681e-002
 -4.4669022e-002 -3.0247194e-002
 -4.5238343e-002 -2.6838445e-002
 -4.8660489e-002 -2.6025562e-002
 -5.2754964e-002 -2.7012751e-002
 -5.4634507e-002 -2.8447092e-002
 -5.2859289e-002 -2.9734634e-002
 -4.8413412e-002 -3.1296003e-002
 -4.3813832e-002 -3.3677368e-002
 -4.1146181e-002 -3.6377973e-002
 -4.0741794e-002 -3.7767997e-002
 -4.1455974e-002 -3.6324217e-002
 -4.2178398e-002 -3.2226252e-002
 -4.3028302e-002 -2.7779252e-002
 -4.5155945e-002 -2.6051755e-002
 -4.9248682e-002 -2.8624832e-002
 -5.4252893e-002 -3.4322551e-002
 -5.7581676e-002 -3.9862138e-002
 -5.6969242e-002 -4.2189634e-002
 -5.2559718e-002 -4.0717887e-002
 -4.7351583e-002 -3.7659779e-002
 -4.5433169e-002 -3.6250233e-002
 -4.9071553e-002 -3.8178956e-002
 -5.6845357e-002 -4.2325733e-002
 -6.4383206e-002 -4.5732038e-002
 -6.7247766e-002 -4.5986217e-002
 -6.3962276e-002 -4.3041664e-002
 -5.6996241e-002 -3.9190071e-002
 -5.0967185e-002 -3.7193179e-002
 -4.9436335e-002 -3.8151304e-002
 -5.2644598e-002 -4.0811508e-002
 -5.7714175e-002 -4.2814548e-002
 -6.0948835e-002 -4.2659030e-002
 -6.0443278e-002 -4.0740654e-002
 -5.7099515e-002 -3.8696906e-002
 -5.3570665e-002 -3.7764039e-002
 -5.2135298e-002 -3.7673395e-002
 -5.3278160e-002 -3.7084996e-002
 -5.5831749e-002 -3.5070626e-002
 -5.8259367e-002 -3.2316453e-002
 -5.9814553e-002 -3.0786946e-002
 -6.0658077e-002 -3.1993681e-002
 -6.1086898e-002 -3.5458349e-002
 -6.0807957e-002 -3.8694396e-002
 -5.9090025e-002 -3.9082607e-002
 -5.5664474e-002 -3.6089717e-002
 -5.1512380e-002 -3.1985406e-002
 -4.8648591e-002 -3.0343273e-002
 -4.8896281e-002 -3.3293844e-002
 -5.2546328e-002 -3.9618703e-002
 -5.8033194e-002 -4.5335310e-002
 -6.2916493e-002 -4.6429701e-002
 -6.5425618e-002 -4.1766810e-002
 -6.5404416e-002 -3.3937019e-002
 -6.4001970e-002 -2.7444942e-002
 -6.2478180e-002 -2.5577097e-002
 -6.1281140e-002 -2.8390223e-002
 -6.0062838e-002 -3.3101869e-002
 -5.8544582e-002 -3.6458779e-002
 -5.7229293e-002 -3.7142296e-002
 -5.7142400e-002 -3.6370360e-002
 -5.8742802e-002 -3.6397126e-002
 -6.1069869e-002 -3.8296973e-002
 -6.2014099e-002 -4.0921025e-002
 -5.9796529e-002 -4.1846511e-002
 -5.4596539e-002 -3.9491519e-002
 -4.8891323e-002 -3.4630091e-002
 -4.6031022e-002 -3.0034301e-002
 -4.7915283e-002 -2.8485734e-002
 -5.3543037e-002 -3.0813192e-002
 -5.9602319e-002 -3.5364893e-002
 -6.2712572e-002 -3.9292946e-002
 -6.1724784e-002 -4.0495339e-002
 -5.8285610e-002 -3.8803651e-002
 -5.5317171e-002 -3.5660020e-002
 -5.4716451e-002 -3.2938529e-002
 -5.6096505e-002 -3.1837101e-002
 -5.7484021e-002 -3.2631172e-002
 -5.7257082e-002 -3.4942920e-002
 -5.5623553e-002 -3.8069703e-002
 -5.4341572e-002 -4.0953740e-002
 -5.5019698e-002 -4.2142345e-002
 -5.7493834e-002 -4.0331320e-002
 -5.9792979e-002 -3.5420804e-002
 -5.9733580e-002 -2.9308722e-002
 -5.6829394e-002 -2.5311119e-002
 -5.2843399e-002 -2.6130713e-002
 -5.0433989e-002 -3.1648148e-002
 -5.1037813e-002 -3.8417877e-002
 -5.3797677e-002 -4.1647270e-002
 -5.6433240e-002 -3.8644275e-002
 -5.7331265e-002 -3.1195695e-002
 -5.6910346e-002 -2.4735489e-002
 -5.7029440e-002 -2.4552421e-002
 -5.8977721e-002 -3.1634879e-002
 -6.1835527e-002 -4.1523957e-002
 -6.2925552e-002 -4.7350741e-002
 -6.0176453e-002 -4.5063139e-002
 -5.4401696e-002 -3.6801893e-002
 -4.9288910e-002 -2.9669068e-002
 -4.8690749e-002 -3.0417374e-002
 -5.3250301e-002 -3.9980324e-002
 -5.9268406e-002 -5.2135276e-002
 -6.1193354e-002 -5.7674697e-002
 -5.5997294e-002 -5.1091603e-002
 -4.6042954e-002 -3.4754239e-002
 -3.7664576e-002 -1.7179856e-002
 -3.6195555e-002 -6.7161553e-003
 -4.1177684e-002 -5.3288815e-003
 -4.5784070e-002 -7.4713364e-003
 -4.1513291e-002 -4.7827920e-003
 -2.4907695e-002  6.9153804e-003
 -1.0468232e-003  2.3972627e-002
  1.9189759e-002  3.7531296e-002
  2.6444440e-002  4.0291495e-002
  1.9432296e-002  3.1950082e-002
  5.5279375e-003  1.8854811e-002
 -5.1459577e-003  8.2529443e-003
 -7.6879092e-003  1.9452346e-003
 -6.1135526e-003 -5.2045341e-003
 -9.7095567e-003 -2.0371278e-002
 -2.4843035e-002 -4.5421945e-002
 -4.8827594e-002 -7.3437768e-002
 -7.1000780e-002 -9.2565807e-002
 -8.0552352e-002 -9.4744822e-002
 -7.4964816e-002 -8.2322267e-002
 -6.2246771e-002 -6.6947756e-002
 -5.4776143e-002 -6.1083158e-002
 -5.9489699e-002 -6.8526611e-002
 -7.2336560e-002 -8.1598967e-002
 -8.1751482e-002 -8.7573456e-002
 -7.8626465e-002 -7.9501834e-002
 -6.4547402e-002 -6.2518888e-002
 -5.1126627e-002 -5.0060009e-002
 -5.0372306e-002 -5.2532518e-002
 -6.3763499e-002 -6.7677607e-002
 -7.9652859e-002 -8.1217544e-002
 -8.2363044e-002 -7.8305138e-002
 -6.6338491e-002 -5.6896722e-002
 -4.3270431e-002 -3.1406835e-002
 -3.4079439e-002 -2.1383304e-002
 -4.9402917e-002 -3.2285102e-002
 -7.3042052e-002 -4.3403277e-002
 -6.3488802e-002 -1.5215633e-002
  2.2522588e-002  8.4845204e-002
  1.9709556e-001  2.5400568e-001
  4.2104035e-001  4.4367550e-001
  6.1345241e-001  5.7768684e-001
  6.8976031e-001  5.9157985e-001
  6.0764286e-001  4.6989336e-001
  3.9296748e-001  2.5792391e-001
  1.2891878e-001  3.9340382e-002
 -8.6403927e-002 -1.0751163e-001
 -1.8903733e-001 -1.4851017e-001
 -1.7647993e-001 -1.0528513e-001
 -9.9076504e-002 -3.4659391e-002
 -2.3803802e-002  8.7917764e-003
  5.1869555e-003  2.8009406e-003
 -1.4327102e-002 -3.6954542e-002
 -5.2246346e-002 -7.5504107e-002
 -7.3557732e-002 -8.5784950e-002
 -6.3077335e-002 -6.5368706e-002
 -3.1860110e-002 -3.3533484e-002
 -4.2640404e-003 -1.3825111e-002
  2.0714069e-003 -1.6688568e-002
 -1.1898148e-002 -3.4164262e-002
 -3.0171211e-002 -4.8680665e-002
 -3.5723976e-002 -4.7435104e-002
 -2.3379730e-002 -3.1200610e-002
 -2.0704281e-003 -1.1797324e-002
  1.3745474e-002 -1.7502610e-003
  1.5736373e-002 -4.8772421e-003
  7.3334300e-003 -1.4669496e-002
 -2.2178590e-004 -2.0647445e-002
  2.7063030e-003 -1.6739780e-002
  1.7048954e-002 -5.1846178e-003
  3.5355418e-002  6.4748740e-003
  4.8458970e-002  1.2019928e-002
  5.2675494e-002  1.1205137e-002
  5.1983775e-002  9.0834121e-003
  5.4135139e-002  1.1306959e-002
  6.4446163e-002  1.9740577e-002
  8.2306678e-002  3.1814472e-002
  1.0283096e-001  4.3590814e-002
  1.2157247e-001  5.3446292e-002
  1.3818674e-001  6.3119602e-002
  1.5606068e-001  7.5516887e-002
  1.7869919e-001  9.1558016e-002
  2.0620660e-001  1.0905290e-001
  2.3488467e-001  1.2468576e-001
  2.6013042e-001  1.3722645e-001
  2.8004383e-001  1.4897178e-001
  2.9667696e-001  1.6394558e-001
  3.1386076e-001  1.8428406e-001
  3.3357799e-001  2.0787583e-001
  3.5382038e-001  2.2930612e-001
  3.6956926e-001  2.4344888e-001
  3.7605809e-001  2.4894205e-001
  3.7154136e-001  2.4861879e-001
  3.5762081e-001  2.4660841e-001
  3.3716011e-001  2.4440436e-001
  3.1184315e-001  2.3924133e-001
  2.8145172e-001  2.2609038e-001
  2.4526577e-001  2.0171190e-001
  2.0410535e-001  1.6755564e-001
  1.6104312e-001  1.2932676e-001
  1.2010254e-001  9.3628781e-002
  8.4026620e-002  6.4243479e-002
  5.3084546e-002  4.0800127e-002
  2.5882397e-002  2.0588891e-002
  1.3603250e-003  1.6372860e-003
 -1.9825059e-002 -1.5532162e-002
 -3.5844644e-002 -2.8809462e-002
 -4.5675671e-002 -3.6844789e-002
 -5.0672812e-002 -4.0715723e-002
 -5.4138774e-002 -4.3344047e-002
 -5.9118304e-002 -4.7300979e-002
 -6.6102094e-002 -5.2851416e-002
 -7.2651805e-002 -5.7883672e-002
 -7.5375675e-002 -5.9781169e-002
 -7.2812468e-002 -5.7756686e-002
 -6.6883483e-002 -5.3552592e-002
 -6.1705605e-002 -5.0059539e-002
 -6.0649043e-002 -4.9106892e-002
 -6.3851849e-002 -5.0270327e-002
 -6.8229234e-002 -5.1614921e-002
 -6.9936798e-002 -5.1504808e-002
 -6.7331600e-002 -4.9913301e-002
 -6.2144147e-002 -4.7991800e-002
 -5.7951739e-002 -4.6538481e-002
 -5.7252999e-002 -4.4874822e-002
 -5.9495342e-002 -4.1462773e-002
 -6.1599244e-002 -3.5761706e-002
 -6.0491973e-002 -2.9607471e-002
 -5.5601001e-002 -2.6426258e-002
 -4.9313998e-002 -2.8659415e-002
 -4.5128807e-002 -3.5260700e-002
 -4.4973756e-002 -4.1594461e-002
 -4.7865732e-002 -4.2266154e-002
 -5.0876303e-002 -3.5104794e-002
 -5.1501321e-002 -2.3256896e-002
 -4.9530004e-002 -1.3482453e-002
 -4.7001457e-002 -1.1642507e-002
 -4.6403608e-002 -1.8595494e-002
 -4.8673771e-002 -2.9551872e-002
 -5.2578811e-002 -3.7465878e-002
 -5.5849279e-002 -3.7981206e-002
 -5.6965102e-002 -3.2288868e-002
 -5.6203242e-002 -2.5955684e-002
 -5.5152791e-002 -2.4570218e-002
 -5.5288676e-002 -2.9612576e-002
 -5.6902959e-002 -3.7583527e-002
 -5.9173869e-002 -4.2954789e-002
 -6.1117134e-002 -4.2347153e-002
 -6.2490844e-002 -3.6789677e-002
 -6.3775905e-002 -3.0536234e-002
 -6.5415580e-002 -2.7546464e-002
 -6.7104456e-002 -2.8553885e-002
 -6.7911770e-002 -3.0948942e-002
 -6.7169917e-002 -3.1363949e-002
 -6.5256176e-002 -2.8691693e-002
 -6.3512243e-002 -2.5089541e-002
 -6.3240118e-002 -2.4174754e-002
 -6.4662666e-002 -2.8125552e-002
 -6.6750954e-002 -3.6012801e-002
 -6.8207141e-002 -4.4551192e-002
 -6.8663417e-002 -5.0518642e-002
 -6.8982444e-002 -5.2796197e-002
 -7.0368984e-002 -5.2546306e-002
 -7.3009456e-002 -5.1698765e-002
 -7.5559558e-002 -5.1169777e-002
 -7.6078663e-002 -5.0368639e-002
 -7.3756785e-002 -4.8359743e-002
 -6.9930591e-002 -4.5273710e-002
 -6.7384475e-002 -4.2601153e-002
 -6.8179234e-002 -4.1987498e-002
 -7.1834494e-002 -4.3600718e-002
 -7.5351895e-002 -4.5695910e-002
 -7.5431814e-002 -4.5867389e-002
 -7.1200944e-002 -4.3105631e-002
 -6.5244009e-002 -3.8850874e-002
 -6.1877478e-002 -3.5983973e-002
 -6.3861209e-002 -3.6488648e-002
 -7.0039336e-002 -3.9762711e-002
 -7.5944115e-002 -4.3010340e-002
 -7.7070553e-002 -4.3529146e-002
 -7.2424687e-002 -4.0951920e-002
 -6.5512413e-002 -3.7668426e-002
 -6.1863947e-002 -3.6928310e-002
 -6.4882503e-002 -4.0187693e-002
 -7.3125131e-002 -4.5807748e-002
 -8.1184470e-002 -5.0326305e-002
 -8.3553865e-002 -5.1167826e-002
 -7.8597776e-002 -4.8586535e-002
 -6.9660655e-002 -4.5210055e-002
 -6.2550895e-002 -4.3690466e-002
 -6.1362082e-002 -4.4465822e-002
 -6.5824455e-002 -4.5620260e-002
 -7.1954028e-002 -4.4826895e-002
 -7.5325005e-002 -4.1733745e-002
 -7.4206713e-002 -3.8500264e-002
 -7.0280678e-002 -3.7870659e-002
 -6.6722840e-002 -4.0420858e-002
 -6.5548416e-002 -4.3529584e-002
 -6.6422326e-002 -4.3263181e-002
 -6.7698352e-002 -3.7801446e-002
 -6.8365075e-002 -2.9504754e-002
 -6.8970204e-002 -2.3643659e-002
 -7.0636813e-002 -2.4531583e-002
 -7.3285930e-002 -3.1918500e-002
 -7.5012537e-002 -4.0868822e-002
 -7.3555027e-002 -4.5392193e-002
 -6.8710678e-002 -4.3194308e-002
 -6.3358189e-002 -3.7539064e-002
 -6.1712314e-002 -3.4532314e-002
 -6.5788399e-002 -3.7834634e-002
 -7.3006667e-002 -4.5027804e-002
 -7.7335109e-002 -4.8776225e-002
 -7.3592782e-002 -4.2239380e-002
 -6.1757921e-002 -2.4700106e-002
 -4.7638488e-002 -2.7598167e-003
 -3.8865099e-002  1.4051146e-002
 -3.8965562e-002  2.0130678e-002
 -4.4163037e-002  1.7797004e-002
 -4.5767398e-002  1.5302698e-002
 -3.6770323e-002  2.0297781e-002
 -1.7693357e-002  3.3900517e-002
  3.0057153e-003  4.9783635e-002
  1.4617769e-002  5.8969011e-002
  1.1806342e-002  5.6337094e-002
 -1.6937240e-003  4.3751085e-002
 -1.6299261e-002  2.7499142e-002
 -2.4240889e-002  1.2553014e-002
 -2.5570145e-002 -1.2352457e-003
 -2.7626889e-002 -1.7656859e-002
 -3.8275147e-002 -3.8928350e-002
 -5.8374976e-002 -6.1533125e-002
 -7.9873625e-002 -7.7322303e-002
 -9.1454873e-002 -7.9562387e-002
 -8.7518479e-002 -6.9015784e-002
 -7.3186699e-002 -5.4586069e-002
 -6.0938996e-002 -4.7195985e-002
 -6.1109235e-002 -5.1398334e-002
 -7.3793452e-002 -6.1784091e-002
 -8.8762350e-002 -6.7581272e-002
 -9.3916408e-002 -6.2163206e-002
 -8.5487291e-002 -4.9629052e-002
 -7.1499693e-002 -4.2252671e-002
 -6.5120043e-002 -5.0079392e-002
 -7.3048527e-002 -7.0854578e-002
 -8.8761377e-002 -8.9443956e-002
 -9.7144846e-002 -8.8784382e-002
 -8.7736864e-002 -6.4608812e-002
 -6.5617590e-002 -3.1357608e-002
 -4.9387252e-002 -1.2196004e-002
 -5.5038996e-002 -1.8394056e-002
 -7.6855601e-002 -3.3389141e-002
 -8.1473440e-002 -1.6312156e-002
 -2.3978955e-002  7.2950045e-002
  1.2076339e-001  2.4143776e-001
  3.3159452e-001  4.4615892e-001
  5.3969818e-001  6.0771704e-001
  6.5813097e-001  6.5035226e-001
  6.2757823e-001  5.4537620e-001
  4.5123560e-001  3.3075319e-001
  1.9649655e-001  9.3104066e-002
 -3.8973164e-002 -7.8085972e-002
 -1.7711105e-001 -1.3649316e-001
 -1.9597958e-001 -9.7906479e-002
 -1.3245810e-001 -2.2233837e-002
 -5.2480121e-002  2.7542174e-002
 -9.6227223e-003  2.2185317e-002
 -1.8114439e-002 -2.3350851e-002
 -5.4384709e-002 -6.8948921e-002
 -8.1595685e-002 -8.1381302e-002
 -7.7595036e-002 -5.6413165e-002
 -4.7456067e-002 -1.7441191e-002
 -1.4775674e-002  5.2381243e-003
 -1.3173493e-003 -2.6105097e-003
 -1.1243142e-002 -3.0681815e-002
 -3.0637154e-002 -5.4547206e-002
 -4.0485305e-002 -5.5190355e-002
 -3.1684522e-002 -3.2456063e-002
 -1.0604041e-002 -3.1187829e-003
  7.8235107e-003  1.3263290e-002
  1.2759030e-002  9.0489607e-003
  5.5057058e-003 -7.2725787e-003
 -2.8269232e-003 -1.9370323e-002
 -1.1486243e-003 -1.6372073e-002
  1.2749927e-002 -3.6790977e-004
  3.1203244e-002  1.6903995e-002
  4.3748021e-002  2.4570007e-002
  4.5980680e-002  2.1357054e-002
  4.2966749e-002  1.5875129e-002
  4.4772633e-002  1.8872848e-002
  5.8155268e-002  3.4284954e-002
  8.1306897e-002  5.6325679e-002
  1.0573188e-001  7.4734492e-002
  1.2346325e-001  8.3415138e-002
  1.3351668e-001  8.5352717e-002
  1.4249211e-001  8.9944428e-002
  1.5896215e-001  1.0520411e-001
  1.8640398e-001  1.3128239e-001
  2.2037655e-001  1.6041223e-001
  2.5203884e-001  1.8301993e-001
  2.7497605e-001  1.9500778e-001
  2.8980004e-001  2.0034772e-001
