 -4.5264420e-002 -1.0428297e-001
 -4.0163738e-002 -1.0776815e-001
 -3.7383419e-002 -1.1661007e-001
 -3.5988474e-002 -1.2037536e-001
 -3.4793340e-002 -1.1010651e-001
 -3.3759370e-002 -8.6375447e-002
 -3.3450628e-002 -6.0379124e-002
 -3.3306695e-002 -4.6272906e-002
 -3.0707488e-002 -5.0046658e-002
 -2.2069647e-002 -6.3729218e-002
 -5.7201309e-003 -7.0403395e-002
  1.5835356e-002 -5.7088671e-002
  3.6346545e-002 -2.6031096e-002
  4.9099385e-002  4.7889066e-003
  5.0799185e-002  1.3339617e-002
  4.3143149e-002 -1.0613256e-002
  3.0719571e-002 -5.7407125e-002
  1.7063338e-002 -1.0368401e-001
  2.1395942e-003 -1.2887936e-001
 -1.6465058e-002 -1.2967026e-001
 -3.9448890e-002 -1.2112127e-001
 -6.2496647e-002 -1.2332335e-001
 -7.7363291e-002 -1.4394252e-001
 -7.7471030e-002 -1.7083200e-001
 -6.4097551e-002 -1.8164097e-001
 -4.7658311e-002 -1.6371242e-001
 -4.1614266e-002 -1.2816821e-001
 -5.2089595e-002 -1.0490034e-001
 -7.0607400e-002 -1.1908485e-001
 -7.6535129e-002 -1.6526222e-001
 -4.9813322e-002 -1.9985531e-001
  1.3169395e-002 -1.6221452e-001
  9.1364701e-002 -1.4430239e-002
  1.4572634e-001  2.2521276e-001
  1.3890206e-001  4.7927102e-001
  5.7162963e-002  6.4494379e-001
 -7.8773457e-002  6.4719463e-001
 -2.2152928e-001  4.8013682e-001
 -3.1980149e-001  2.1146787e-001
 -3.4331425e-001 -5.2902934e-002
 -2.9587358e-001 -2.2291106e-001
 -2.0982970e-001 -2.6554646e-001
 -1.2629174e-001 -2.1122351e-001
 -7.3702615e-002 -1.2564850e-001
 -5.6776646e-002 -6.7851297e-002
 -6.0595462e-002 -6.0702484e-002
 -6.4854942e-002 -8.8822810e-002
 -5.7852876e-002 -1.1965848e-001
 -4.1645862e-002 -1.2966835e-001
 -2.6881831e-002 -1.1770158e-001
 -2.2748327e-002 -9.9527493e-002
 -2.9946664e-002 -9.1417513e-002
 -4.1095963e-002 -9.6899072e-002
 -4.7149594e-002 -1.0604534e-001
 -4.4269151e-002 -1.0585014e-001
 -3.5916861e-002 -9.1917684e-002
 -2.9295540e-002 -7.2001431e-002
 -2.9133922e-002 -5.9144655e-002
 -3.4045885e-002 -6.0821548e-002
 -3.7731354e-002 -7.2934533e-002
 -3.3931451e-002 -8.3258847e-002
 -2.1112423e-002 -8.1131506e-002
 -3.5053212e-003 -6.5568562e-002
  1.1923570e-002 -4.5634031e-002
  2.0087683e-002 -3.3100357e-002
  2.0695996e-002 -3.3371989e-002
  1.7663373e-002 -4.1691314e-002
  1.5981452e-002 -4.7184062e-002
  1.8579422e-002 -4.1251858e-002
  2.5389221e-002 -2.3739296e-002
  3.4589315e-002 -2.4910777e-003
  4.4595045e-002  1.2927561e-002
  5.5148726e-002  1.8302799e-002
  6.6854183e-002  1.7322198e-002
  8.0028565e-002  1.8115200e-002
  9.4197851e-002  2.6891818e-002
  1.0848132e-001  4.3822200e-002
  1.2261713e-001  6.3552724e-002
  1.3715623e-001  7.9684122e-002
  1.5268397e-001  8.9417769e-002
  1.6865229e-001  9.4820518e-002
  1.8306648e-001  1.0027945e-001
  1.9353959e-001  1.0860887e-001
  1.9900853e-001  1.1910220e-001
  2.0061980e-001  1.2872987e-001
  2.0066632e-001  1.3504980e-001
  2.0017293e-001  1.3799891e-001
  1.9697442e-001  1.3909377e-001
  1.8625984e-001  1.3896313e-001
  1.6367058e-001  1.3563636e-001
  1.2909165e-001  1.2540948e-001
  8.8253422e-002  1.0582462e-001
  5.0566878e-002  7.8335588e-002
  2.4185257e-002  4.8350626e-002
  1.1312585e-002  2.2244697e-002
  7.0604143e-003  3.5309716e-003
  2.7425758e-003 -8.9476682e-003
 -8.3610056e-003 -1.9285605e-002
 -2.6648884e-002 -3.0767202e-002
 -4.6085649e-002 -4.2939496e-002
 -5.8429805e-002 -5.1904944e-002
 -5.8821986e-002 -5.3604898e-002
 -4.9110460e-002 -4.7613191e-002
 -3.6637271e-002 -3.8302220e-002
 -2.9594473e-002 -3.2396028e-002
 -3.2000048e-002 -3.4464931e-002
 -4.1643182e-002 -4.3762927e-002
 -5.2110752e-002 -5.4692835e-002
 -5.7163530e-002 -6.0577865e-002
 -5.4558853e-002 -5.8074951e-002
 -4.6830585e-002 -4.9142202e-002
 -3.9053450e-002 -3.9358940e-002
 -3.5317994e-002 -3.3957764e-002
 -3.6342657e-002 -3.4494802e-002
 -3.9562803e-002 -3.8381278e-002
 -4.1283150e-002 -4.1271391e-002
 -3.9140282e-002 -4.0253111e-002
 -3.3430542e-002 -3.5589120e-002
 -2.6656733e-002 -3.0003230e-002
 -2.1961678e-002 -2.6489105e-002
 -2.1457022e-002 -2.6443054e-002
 -2.5406415e-002 -2.9365128e-002
 -3.2295860e-002 -3.3930228e-002
 -3.9676412e-002 -3.9209200e-002
 -4.5234466e-002 -4.4918276e-002
 -4.7764951e-002 -5.0778427e-002
 -4.7648894e-002 -5.5863298e-002
 -4.6658427e-002 -5.8907235e-002
 -4.6932739e-002 -5.9408076e-002
 -4.9517933e-002 -5.8453869e-002
 -5.3347053e-002 -5.8265011e-002
 -5.5567891e-002 -6.0545588e-002
 -5.3174420e-002 -6.4765933e-002
 -4.5255208e-002 -6.8036129e-002
 -3.4232258e-002 -6.6974408e-002
 -2.5046645e-002 -6.0400571e-002
 -2.2472834e-002 -5.0768586e-002
 -2.8145981e-002 -4.3027893e-002
 -3.9314417e-002 -4.1540179e-002
 -5.0328559e-002 -4.7196456e-002
 -5.5975082e-002 -5.6851651e-002
 -5.4416574e-002 -6.5506453e-002
 -4.7998919e-002 -6.9753844e-002
 -4.1231172e-002 -6.9821234e-002
 -3.7646843e-002 -6.8844982e-002
 -3.7777067e-002 -7.0019864e-002
 -3.9650496e-002 -7.4044707e-002
 -4.1068845e-002 -7.8785494e-002
 -4.1734212e-002 -8.1324822e-002
 -4.3343454e-002 -8.0488899e-002
 -4.7676005e-002 -7.7668899e-002
 -5.4367296e-002 -7.5292997e-002
 -6.0472961e-002 -7.4329487e-002
 -6.2387220e-002 -7.3153085e-002
 -5.8798980e-002 -6.9075919e-002
 -5.2156328e-002 -6.1313642e-002
 -4.7288051e-002 -5.2736574e-002
 -4.7810574e-002 -4.8430180e-002
 -5.3279313e-002 -5.1894386e-002
 -5.9270077e-002 -6.1747943e-002
 -6.0635927e-002 -7.1944081e-002
 -5.5536583e-002 -7.5676691e-002
 -4.7029700e-002 -7.0738075e-002
 -4.0838721e-002 -6.1552821e-002
 -4.0879209e-002 -5.6073181e-002
 -4.6040888e-002 -5.9620396e-002
 -5.0975186e-002 -7.0433813e-002
 -5.0490414e-002 -8.0695192e-002
 -4.4045375e-002 -8.2618321e-002
 -3.6723979e-002 -7.5006881e-002
 -3.5523010e-002 -6.4798584e-002
 -4.3725091e-002 -6.1874866e-002
 -5.7623958e-002 -7.0589226e-002
 -6.8632339e-002 -8.4956714e-002
 -6.9358753e-002 -9.1828143e-002
 -5.9227049e-002 -8.0581643e-002
 -4.5136628e-002 -5.2084813e-002
 -3.6293308e-002 -1.9602898e-002
 -3.7082109e-002 -9.8154641e-005
 -4.3364567e-002 -1.7471450e-003
 -4.5430683e-002 -1.7189366e-002
 -3.5424193e-002 -2.8288573e-002
 -1.3743189e-002 -1.9765573e-002
  1.0735549e-002  8.2561039e-003
  2.6923325e-002  3.8673217e-002
  2.9518319e-002  4.8812900e-002
  2.2407372e-002  2.6981051e-002
  1.4666381e-002 -1.8224570e-002
  1.2258686e-002 -6.3392982e-002
  1.2380367e-002 -8.6931189e-002
  5.4807400e-003 -8.4623667e-002
 -1.6024075e-002 -7.1884451e-002
 -4.9179043e-002 -7.0564380e-002
 -7.9620059e-002 -9.0285449e-002
 -9.0511480e-002 -1.1941513e-001
 -7.5406707e-002 -1.3394784e-001
 -4.5155148e-002 -1.1848049e-001
 -2.2181545e-002 -8.2717626e-002
 -2.4671409e-002 -5.8408106e-002
 -5.1429395e-002 -7.5577003e-002
 -7.9250926e-002 -1.3363092e-001
 -7.6751810e-002 -1.8976382e-001
 -2.6983432e-002 -1.7772001e-001
  5.6283204e-002 -4.9164379e-002
  1.3098521e-001  1.8768843e-001
  1.4850478e-001  4.5918873e-001
  8.2432276e-002  6.5711282e-001
 -5.3579191e-002  6.9388668e-001
 -2.1040570e-001  5.5018146e-001
 -3.2835673e-001  2.8612939e-001
 -3.6750102e-001  9.3188551e-003
 -3.2586190e-001 -1.8125330e-001
 -2.3573487e-001 -2.4205849e-001
 -1.4243275e-001 -1.9716099e-001
 -7.9624818e-002 -1.1251184e-001
 -5.5748034e-002 -5.2099032e-002
 -5.7344032e-002 -4.4081515e-002
 -6.3809411e-002 -7.4984160e-002
 -6.2100635e-002 -1.1007994e-001
 -5.2177121e-002 -1.2195220e-001
 -4.2021358e-002 -1.0728978e-001
 -3.8195928e-002 -8.3215181e-002
 -4.0108926e-002 -7.0016292e-002
 -4.1450779e-002 -7.5062169e-002
 -3.6442038e-002 -8.9445287e-002
 -2.5079990e-002 -9.7646771e-002
 -1.3037304e-002 -9.0860304e-002
 -6.8167374e-003 -7.3273515e-002
 -8.4382527e-003 -5.7320195e-002
 -1.3991970e-002 -5.2870039e-002
 -1.6935445e-002 -5.9532441e-002
 -1.3213104e-002 -6.7778485e-002
 -4.0042251e-003 -6.7214489e-002
  5.8365866e-003 -5.4926996e-002
  1.2034343e-002 -3.7375700e-002
  1.4090346e-002 -2.4866547e-002
  1.5070004e-002 -2.3382690e-002
  1.8342006e-002 -3.0320804e-002
  2.4380639e-002 -3.7047545e-002
  3.0392510e-002 -3.5823243e-002
  3.3081339e-002 -2.5402708e-002
  3.2187553e-002 -1.1243181e-002
  3.1635456e-002 -5.4452710e-004
  3.7092235e-002  3.5317864e-003
  5.1821748e-002  3.8695789e-003
  7.3968861e-002  6.6396868e-003
  9.7499595e-002  1.6311314e-002
  1.1615012e-001  3.2346366e-002
  1.2750193e-001  5.0016608e-002
  1.3413441e-001  6.4200939e-002
  1.4131438e-001  7.3026761e-002
  1.5295760e-001  7.8600959e-002
  1.6892851e-001  8.4688356e-002
  1.8545303e-001  9.3520533e-002
  1.9792815e-001  1.0424716e-001
  2.0377423e-001  1.1391201e-001
  2.0326938e-001  1.1983251e-001
  1.9804348e-001  1.2122499e-001
  1.8885038e-001  1.1896687e-001
  1.7467119e-001  1.1400412e-001
  1.5383643e-001  1.0608587e-001
  1.2614246e-001  9.3948346e-002
  9.4015103e-002  7.6670211e-002
  6.1717834e-002  5.4965065e-002
  3.3056081e-002  3.1181036e-002
  9.5033906e-003  8.1177848e-003
 -9.8822729e-003 -1.2401394e-002
 -2.6790773e-002 -3.0021749e-002
 -4.1544428e-002 -4.5062118e-002
 -5.2415040e-002 -5.7348022e-002
 -5.6920882e-002 -6.5791889e-002
 -5.4112943e-002 -6.9130726e-002
 -4.6081428e-002 -6.7262638e-002
 -3.7386102e-002 -6.1988215e-002
 -3.2748208e-002 -5.6516490e-002
 -3.4490542e-002 -5.4020969e-002
 -4.1410972e-002 -5.6107836e-002
 -4.9715145e-002 -6.2243096e-002
 -5.5293127e-002 -7.0275532e-002
 -5.5858995e-002 -7.7632465e-002
 -5.1794647e-002 -8.2350822e-002
 -4.5447732e-002 -8.3582345e-002
 -3.9629210e-002 -8.1609705e-002
 -3.6378987e-002 -7.7677023e-002
 -3.6349174e-002 -7.3572015e-002
 -3.8928369e-002 -7.1006575e-002
 -4.2673837e-002 -7.0847778e-002
 -4.5843271e-002 -7.2607095e-002
 -4.6934142e-002 -7.4675898e-002
 -4.5240633e-002 -7.5372301e-002
 -4.1279609e-002 -7.4281623e-002
 -3.6768683e-002 -7.2861858e-002
 -3.4046516e-002 -7.3695468e-002
 -3.4983909e-002 -7.8714039e-002
 -4.0021500e-002 -8.7603916e-002
 -4.7814462e-002 -9.7680281e-002
 -5.5810820e-002 -1.0540544e-001
 -6.1374627e-002 -1.0858246e-001
 -6.2977501e-002 -1.0761502e-001
 -6.0851326e-002 -1.0501145e-001
 -5.6770202e-002 -1.0343211e-001
 -5.3194361e-002 -1.0384812e-001
 -5.2105921e-002 -1.0519213e-001
 -5.4153552e-002 -1.0566536e-001
 -5.8259369e-002 -1.0449005e-001
 -6.2066360e-002 -1.0263385e-001
 -6.3071370e-002 -1.0200019e-001
 -5.9974435e-002 -1.0378466e-001
 -5.3637097e-002 -1.0743941e-001
 -4.6899125e-002 -1.1109429e-001
 -4.3211369e-002 -1.1302907e-001
 -4.4725678e-002 -1.1294103e-001
 -5.0946576e-002 -1.1191648e-001
 -5.8838111e-002 -1.1121399e-001
 -6.4547144e-002 -1.1110317e-001
 -6.5696360e-002 -1.1081226e-001
 -6.2696290e-002 -1.0958538e-001
 -5.8291085e-002 -1.0774619e-001
 -5.5624029e-002 -1.0664577e-001
 -5.6181273e-002 -1.0736248e-001
 -5.9095585e-002 -1.0936472e-001
 -6.2095750e-002 -1.1049457e-001
 -6.3274012e-002 -1.0870031e-001
 -6.2266448e-002 -1.0414418e-001
 -5.9984272e-002 -9.9773915e-002
 -5.7365666e-002 -9.9456657e-002
 -5.4426002e-002 -1.0494392e-001
 -5.0644968e-002 -1.1419652e-001
 -4.6221885e-002 -1.2253888e-001
 -4.2983485e-002 -1.2607594e-001
 -4.3663548e-002 -1.2466147e-001
 -4.9758931e-002 -1.2185036e-001
 -5.9549386e-002 -1.2160864e-001
 -6.8259253e-002 -1.2453588e-001
 -7.0736324e-002 -1.2691222e-001
 -6.5223676e-002 -1.2388478e-001
 -5.5201715e-002 -1.1424425e-001
 -4.7596287e-002 -1.0254840e-001
 -4.8259181e-002 -9.6204957e-002
 -5.7593047e-002 -9.9323145e-002
 -6.9971983e-002 -1.0800323e-001
 -7.7322858e-002 -1.1176587e-001
 -7.4741188e-002 -1.0108500e-001
 -6.3930262e-002 -7.5773468e-002
 -5.1788043e-002 -4.7122674e-002
 -4.5070152e-002 -3.1097716e-002
 -4.5101995e-002 -3.6645841e-002
 -4.6616917e-002 -5.7835400e-002
 -4.1777804e-002 -7.6607148e-002
 -2.6322230e-002 -7.5235940e-002
 -3.2537173e-003 -4.9919589e-002
  1.8717909e-002 -1.5203187e-002
  3.0895443e-002  5.0536876e-003
  2.9993503e-002 -5.7312379e-003
  1.9217381e-002 -4.4794121e-002
  4.5314356e-003 -9.1735847e-002
 -1.0437196e-002 -1.2317629e-001
 -2.6298039e-002 -1.2939492e-001
 -4.5086620e-002 -1.2026427e-001
 -6.5378607e-002 -1.1563821e-001
 -8.0392707e-002 -1.2776015e-001
 -8.1804195e-002 -1.5004744e-001
 -6.7162959e-002 -1.6227927e-001
 -4.4564386e-002 -1.4900458e-001
 -2.9333113e-002 -1.1636253e-001
 -3.3269897e-002 -9.1831891e-002
 -5.3580199e-002 -1.0371661e-001
 -7.0695590e-002 -1.5357626e-001
 -5.9070691e-002 -2.0331578e-001
 -5.7235577e-003 -1.9083023e-001
  7.5532221e-002 -6.8819887e-002
  1.4546357e-001  1.5707792e-001
  1.5838043e-001  4.1778610e-001
  8.8803855e-002  6.0911191e-001
 -5.0512930e-002  6.4514900e-001
 -2.1122436e-001  5.0561372e-001
 -3.3261066e-001  2.4809236e-001
 -3.7213612e-001 -2.2535079e-002
 -3.2580304e-001 -2.0912023e-001
 -2.2681266e-001 -2.6881361e-001
 -1.2470369e-001 -2.2532857e-001
 -5.8396824e-002 -1.4340643e-001
 -3.9186661e-002 -8.5286816e-002
 -5.1946306e-002 -7.7381346e-002
 -7.0685662e-002 -1.0517793e-001
 -7.6608712e-002 -1.3418913e-001
 -6.7114559e-002 -1.3847749e-001
 -5.2104128e-002 -1.1672220e-001
 -4.2920197e-002 -8.7497674e-002
 -4.3132498e-002 -7.1259830e-002
 -4.7408578e-002 -7.4451043e-002
 -4.7591358e-002 -8.7032942e-002
 -3.9996394e-002 -9.3075625e-002
 -2.7961713e-002 -8.4343276e-002
 -1.8304911e-002 -6.5991545e-002
 -1.5280113e-002 -5.0952321e-002
 -1.7376540e-002 -4.8665315e-002
 -1.9297363e-002 -5.7697494e-002
 -1.7065868e-002 -6.7707030e-002
 -1.1679500e-002 -6.8358268e-002
 -8.0478806e-003 -5.7454608e-002
 -1.0253398e-002 -4.1954871e-002
 -1.7124934e-002 -3.1610812e-002
 -2.2088759e-002 -3.0860718e-002
 -1.7671808e-002 -3.5614932e-002
 -1.3422967e-003 -3.7110081e-002
  2.1934866e-002 -2.9333487e-002
  4.2566366e-002 -1.3890562e-002
  5.2764750e-002  1.5832930e-003
  5.1898915e-002  9.7630597e-003
  4.6830573e-002  9.7514613e-003
  4.7236245e-002  7.7057165e-003
  5.9140808e-002  1.1873282e-002
  8.1294422e-002  2.6194835e-002
  1.0663309e-001  4.7347923e-002
  1.2731115e-001  6.7336656e-002
  1.3964721e-001  7.9448062e-002
  1.4567257e-001  8.2987685e-002
  1.5068145e-001  8.3334737e-002
  1.5900128e-001  8.7636614e-002
  1.7109407e-001  9.9644549e-002
  1.8364749e-001  1.1736582e-001
  1.9209695e-001  1.3491148e-001
  1.9327128e-001  1.4650819e-001
  1.8640202e-001  1.4965635e-001
  1.7242857e-001  1.4539162e-001
  1.5253810e-001  1.3610455e-001
  1.2757817e-001  1.2320645e-001
  9.8579035e-002  1.0654290e-001
  6.7595704e-002  8.5710387e-002
  3.7866986e-002  6.1787392e-002
  1.2693039e-002  3.7692928e-002
 -6.0087674e-003  1.6947134e-002
 -1.8516367e-002  1.7323080e-003
 -2.6707062e-002 -8.0958709e-003
 -3.2689481e-002 -1.4427633e-002
 -3.7626896e-002 -1.9319069e-002
 -4.1621001e-002 -2.3709770e-002
 -4.4548614e-002 -2.7345045e-002
 -4.6911021e-002 -2.9685699e-002
 -4.9877755e-002 -3.0781171e-002
 -5.4280990e-002 -3.1309912e-002
 -5.9667072e-002 -3.1948537e-002
 -6.4064656e-002 -3.2678173e-002
 -6.5035104e-002 -3.2849466e-002
 -6.1187057e-002 -3.1881768e-002
 -5.3125645e-002 -3.0036190e-002
 -4.3214260e-002 -2.8526915e-002
 -3.4251105e-002 -2.8799676e-002
 -2.8069100e-002 -3.1500219e-002
 -2.5053745e-002 -3.6044714e-002
 -2.4665195e-002 -4.0944785e-002
 -2.6359356e-002 -4.4680946e-002
 -2.9973168e-002 -4.6351211e-002
 -3.5363418e-002 -4.5828184e-002
 -4.1728507e-002 -4.3499718e-002
 -4.7398940e-002 -3.9986519e-002
 -5.0574958e-002 -3.6115521e-002
 -5.0512779e-002 -3.2977466e-002
 -4.8329540e-002 -3.1741988e-002
 -4.6526604e-002 -3.3110622e-002
 -4.7344039e-002 -3.6679965e-002
 -5.1140852e-002 -4.0889972e-002
 -5.5871167e-002 -4.3736488e-002
 -5.8241751e-002 -4.3852222e-002
 -5.5821458e-002 -4.1220397e-002
 -4.8801877e-002 -3.7106923e-002
 -4.0102664e-002 -3.3236693e-002
 -3.3716311e-002 -3.0891692e-002
 -3.2312722e-002 -3.0554989e-002
 -3.5671880e-002 -3.2165883e-002
 -4.1040626e-002 -3.5583422e-002
 -4.5009683e-002 -4.0605890e-002
 -4.5765837e-002 -4.6550496e-002
 -4.4132139e-002 -5.1979035e-002
 -4.2765438e-002 -5.5093601e-002
 -4.4088967e-002 -5.4772944e-002
 -4.8377063e-002 -5.1487523e-002
 -5.3372400e-002 -4.7313099e-002
 -5.5728843e-002 -4.4754648e-002
 -5.3358106e-002 -4.5127916e-002
 -4.7038952e-002 -4.7744093e-002
 -4.0080638e-002 -5.0556632e-002
 -3.6344414e-002 -5.1811756e-002
 -3.7736363e-002 -5.1347307e-002
 -4.2952450e-002 -5.0454522e-002
 -4.8360051e-002 -5.0534519e-002
 -5.0486800e-002 -5.1755610e-002
 -4.8364358e-002 -5.2848835e-002
 -4.4158979e-002 -5.2401053e-002
 -4.1555790e-002 -5.0357880e-002
 -4.3042363e-002 -4.8359254e-002
 -4.8013277e-002 -4.8393123e-002
 -5.3052862e-002 -5.0857481e-002
 -5.4319673e-002 -5.3898479e-002
 -5.0374489e-002 -5.4901739e-002
 -4.3321003e-002 -5.2972534e-002
 -3.7491066e-002 -5.0303712e-002
 -3.6484097e-002 -5.0825193e-002
 -4.0696654e-002 -5.6923386e-002
 -4.7098568e-002 -6.6781679e-002
 -5.1391012e-002 -7.4931647e-002
 -5.0977237e-002 -7.6106249e-002
 -4.6576119e-002 -6.9511977e-002
 -4.1409175e-002 -5.9933942e-002
 -3.8667887e-002 -5.4195454e-002
 -3.9298023e-002 -5.5441593e-002
 -4.1721525e-002 -5.9871623e-002
 -4.3465565e-002 -5.9076293e-002
 -4.3272623e-002 -4.6752507e-002
 -4.1659454e-002 -2.5104660e-002
 -3.9651148e-002 -4.8077321e-003
 -3.6817724e-002  2.0985911e-003
 -3.0599342e-002 -8.3234855e-003
 -1.7994462e-002 -2.7597168e-002
  1.5859979e-003 -3.9770333e-002
  2.4712509e-002 -3.2866618e-002
  4.5074914e-002 -8.6197738e-003
  5.7113514e-002  1.7387884e-002
  5.9275241e-002  2.6001549e-002
  5.4421280e-002  8.2163229e-003
  4.6855800e-002 -2.8067005e-002
  3.8375397e-002 -6.3617359e-002
  2.6734012e-002 -8.2014699e-002
  8.2505147e-003 -8.1473019e-002
 -1.7271365e-002 -7.4961463e-002
 -4.3635289e-002 -7.8318712e-002
 -6.0657491e-002 -9.5857740e-002
 -6.1114320e-002 -1.1568975e-001
 -4.7331386e-002 -1.1973071e-001
 -3.1528561e-002 -1.0111452e-001
 -2.8110545e-002 -7.4303006e-002
 -4.2110277e-002 -6.7047230e-002
 -6.2214826e-002 -9.7116726e-002
 -6.5070534e-002 -1.5022948e-001
 -3.0235523e-002 -1.7807828e-001
  4.2865070e-002 -1.2318544e-001
  1.2779471e-001  4.1958824e-002
  1.8058877e-001  2.8669429e-001
  1.6241190e-001  5.2649033e-001
  6.2847639e-002  6.6174028e-001
 -9.0639277e-002  6.3022337e-001
 -2.4375109e-001  4.4203159e-001
 -3.4155915e-001  1.7525496e-001
 -3.5507129e-001 -6.5312473e-002
 -2.9328186e-001 -2.0169513e-001
 -1.9470739e-001 -2.1713715e-001
 -1.0465398e-001 -1.5344878e-001
 -5.2225770e-002 -7.6970738e-002
 -3.9817006e-002 -3.7315232e-002
 -4.9066165e-002 -4.4379211e-002
 -5.6948790e-002 -7.4182312e-002
 -5.0647934e-002 -9.4276819e-002
 -3.2564213e-002 -8.8490485e-002
 -1.4462693e-002 -6.4650402e-002
 -6.8170392e-003 -4.3404873e-002
 -1.1316558e-002 -3.9656798e-002
 -2.0886027e-002 -5.1583356e-002
 -2.5838388e-002 -6.4295994e-002
 -2.0747396e-002 -6.3272177e-002
 -7.2775865e-003 -4.5962733e-002
  8.1015870e-003 -2.2827555e-002
  1.8955598e-002 -8.1550304e-003
  2.2611990e-002 -8.8229618e-003
  2.0672116e-002 -1.9801241e-002
  1.6954754e-002 -2.9192946e-002
  1.5044099e-002 -2.7836338e-002
  1.6955417e-002 -1.5747189e-002
  2.3159874e-002 -6.9204847e-004
  3.2927207e-002  8.9318486e-003
  4.4366829e-002  1.0703515e-002
  5.4566705e-002  9.1321070e-003
  6.0510837e-002  1.0925082e-002
  6.0972974e-002  1.9134526e-002
  5.8103139e-002  3.1039038e-002
  5.7156165e-002  4.1187166e-002
  6.3859221e-002  4.6445311e-002
  8.0703827e-002  4.8597911e-002
  1.0481205e-001  5.2331318e-002
  1.2929601e-001  6.0762827e-002
  1.4740260e-001  7.2629719e-002
  1.5699355e-001  8.3615782e-002
  1.6187023e-001  9.0344700e-002
  1.6894486e-001  9.3707543e-002
  1.8319093e-001  9.8281160e-002
  2.0387591e-001  1.0833082e-001
  2.2480228e-001  1.2368551e-001
  2.3842985e-001  1.3931032e-001
  2.4085961e-001  1.4906395e-001
  2.3406898e-001  1.5062942e-001
  2.2375202e-001  1.4737668e-001
  2.1462260e-001  1.4540059e-001
  2.0674359e-001  1.4804179e-001
  1.9565035e-001  1.5234152e-001
  1.7621918e-001  1.5059844e-001
  1.4721374e-001  1.3604356e-001
  1.1316904e-001  1.0840861e-001
  8.2010668e-002  7.4952291e-002
  6.0147462e-002  4.5992624e-002
  4.8491223e-002  2.8147033e-002
  4.2287962e-002  2.0409896e-002
  3.4738512e-002  1.5826835e-002
  2.1784680e-002  7.2971818e-003
  4.6962902e-003 -7.0218832e-003
 -1.1111667e-002 -2.2697720e-002
 -2.0075207e-002 -3.2934654e-002
 -2.0213667e-002 -3.4087892e-002
 -1.4269976e-002 -2.8552070e-002
 -7.6004523e-003 -2.2793509e-002
 -4.5373031e-003 -2.2393418e-002
 -5.9023123e-003 -2.8083453e-002
 -9.0712999e-003 -3.5691647e-002
 -1.0349745e-002 -3.9831666e-002
 -7.7068055e-003 -3.8134675e-002
 -2.1205252e-003 -3.2770774e-002
  3.2466320e-003 -2.8296699e-002
  5.1797875e-003 -2.7792634e-002
  2.4364817e-003 -3.0491466e-002
 -3.5603437e-003 -3.2705176e-002
 -9.7171671e-003 -3.1197748e-002
 -1.3013208e-002 -2.6003032e-002
 -1.2059918e-002 -2.0541986e-002
 -7.6384046e-003 -1.8991923e-002
 -2.0973795e-003 -2.3026180e-002
  1.9324902e-003 -3.0539861e-002
  2.8648646e-003 -3.7172113e-002
  7.5285554e-004 -3.9407695e-002
 -2.8981126e-003 -3.6833091e-002
 -6.1598994e-003 -3.2039832e-002
 -7.7345294e-003 -2.8422012e-002
 -7.6103808e-003 -2.7784032e-002
 -6.8632951e-003 -2.9441383e-002
 -6.7594121e-003 -3.1199829e-002
 -7.8285195e-003 -3.1200775e-002
 -9.5221239e-003 -2.9206622e-002
 -1.0687903e-002 -2.6542123e-002
 -1.0525385e-002 -2.5037236e-002
 -9.2224915e-003 -2.5865248e-002
 -7.8529584e-003 -2.9096650e-002
 -7.6208085e-003 -3.3928830e-002
 -9.0737398e-003 -3.9179703e-002
 -1.1886586e-002 -4.3686165e-002
 -1.5363458e-002 -4.6622781e-002
 -1.9085367e-002 -4.7804250e-002
 -2.2937824e-002 -4.7846810e-002
 -2.6584747e-002 -4.7995669e-002
 -2.8857194e-002 -4.9364342e-002
 -2.8004968e-002 -5.2113976e-002
 -2.2976263e-002 -5.5129795e-002
 -1.4942328e-002 -5.6786936e-002
 -7.6733649e-003 -5.6364743e-002
 -5.9404687e-003 -5.5012045e-002
 -1.2532935e-002 -5.5227980e-002
 -2.5910537e-002 -5.9010718e-002
 -4.0334840e-002 -6.5947130e-002
 -4.8937287e-002 -7.2927361e-002
 -4.7939631e-002 -7.6002402e-002
 -3.9100009e-002 -7.3148060e-002
 -2.8703336e-002 -6.5913301e-002
 -2.3419298e-002 -5.8472745e-002
 -2.5903336e-002 -5.4678074e-002
 -3.3239409e-002 -5.5359462e-002
 -3.9238272e-002 -5.8053937e-002
 -3.9122795e-002 -5.9484276e-002
 -3.2982382e-002 -5.8614712e-002
 -2.5652836e-002 -5.7657214e-002
 -2.3050435e-002 -5.9966349e-002
 -2.7829328e-002 -6.6546708e-002
 -3.7515913e-002 -7.4246125e-002
 -4.6353443e-002 -7.7591370e-002
 -4.9533753e-002 -7.3168175e-002
 -4.6417096e-002 -6.2938880e-002
 -4.0533862e-002 -5.3302000e-002
 -3.6608961e-002 -5.0164770e-002
 -3.7052733e-002 -5.3742402e-002
 -4.0621162e-002 -5.7635028e-002
 -4.4059587e-002 -5.3590415e-002
 -4.4723647e-002 -3.8936879e-002
 -4.2122027e-002 -2.0217352e-002
 -3.7068653e-002 -9.4672801e-003
 -2.9685506e-002 -1.5124983e-002
 -1.8540780e-002 -3.4314586e-002
 -2.1553466e-003 -5.3157617e-002
  1.8348193e-002 -5.6005568e-002
  3.8027574e-002 -3.7416256e-002
  5.0056590e-002 -7.7334060e-003
  5.0078816e-002  1.2881824e-002
  3.9408079e-002  8.3064499e-003
  2.4384214e-002 -2.1677935e-002
  1.1708448e-002 -6.0785546e-002
  3.2532369e-003 -8.7964339e-002
 -5.2690445e-003 -9.2867458e-002
 -2.0161234e-002 -8.3123014e-002
 -4.3036017e-002 -7.7300049e-002
 -6.7160108e-002 -8.8734322e-002
 -8.0843192e-002 -1.1327154e-001
 -7.6228200e-002 -1.3163361e-001
 -5.6910612e-002 -1.2584299e-001
 -3.7552833e-002 -9.7175747e-002
 -3.3910118e-002 -6.9759380e-002
 -4.9568893e-002 -7.3745575e-002
 -6.9481856e-002 -1.1793214e-001
 -6.7274184e-002 -1.7249845e-001
 -2.3535991e-002 -1.7819984e-001
  5.6233597e-002 -8.1313339e-002
  1.3762015e-001  1.2619602e-001
  1.7250760e-001  3.8847546e-001
  1.2634998e-001  6.0546756e-001
  1.1263236e-003  6.8257489e-001
 -1.6123517e-001  5.8199209e-001
 -2.9857160e-001  3.4454484e-001
 -3.6045264e-001  6.8337256e-002
 -3.3342743e-001 -1.4304393e-001
 -2.4477996e-001 -2.3177905e-001
 -1.4371464e-001 -2.0725479e-001
 -7.2538301e-002 -1.2825879e-001
 -4.5860054e-002 -6.1084612e-002
 -4.9371399e-002 -4.1634666e-002
 -5.6060634e-002 -6.3398460e-002
 -4.7174275e-002 -9.4040424e-002
 -2.3472725e-002 -1.0443507e-001
 -7.5231814e-004 -8.8708971e-002
  4.9033532e-003 -6.3388166e-002
 -9.7172989e-003 -5.0223967e-002
 -3.2831053e-002 -5.7986162e-002
 -4.7020627e-002 -7.7071466e-002
 -4.2209891e-002 -8.9185105e-002
 -2.2428150e-002 -8.2831831e-002
 -1.9120094e-003 -6.1894242e-002
  5.7787037e-003 -4.1326548e-002
 -2.8137566e-003 -3.4465148e-002
 -1.9691462e-002 -4.2669936e-002
 -3.2160503e-002 -5.5145489e-002
 -3.2044413e-002 -5.8276652e-002
 -2.0420337e-002 -4.6493359e-002
 -5.1321258e-003 -2.6030338e-002
  6.1115000e-003 -9.1567434e-003
  1.1214177e-002 -4.1108497e-003
  1.3876250e-002 -9.0405173e-003
  1.9164884e-002 -1.4396670e-002
  2.8671474e-002 -1.1331856e-002
  3.9506925e-002  1.1402756e-003
  4.7391165e-002  1.5859158e-002
  5.1166840e-002  2.4101165e-002
  5.4377896e-002  2.3275057e-002
  6.2715207e-002  1.9438636e-002
  7.9304230e-002  2.2520373e-002
  1.0194824e-001  3.8269811e-002
  1.2458202e-001  6.3390839e-002
  1.4186689e-001  8.7784990e-002
  1.5312361e-001  1.0202658e-001
  1.6247792e-001  1.0419703e-001
  1.7498154e-001  1.0083100e-001
  1.9207264e-001  1.0156023e-001
  2.0982191e-001  1.1171679e-001
  2.2143127e-001  1.2879962e-001
  2.2202620e-001  1.4472758e-001
  2.1191796e-001  1.5214351e-001
  1.9578268e-001  1.4941509e-001
  1.7875150e-001  1.4072536e-001
  1.6250600e-001  1.3163477e-001
  1.4466192e-001  1.2428962e-001
  1.2169392e-001  1.1609024e-001
  9.2948168e-002  1.0274743e-001
  6.2161519e-002  8.2735745e-002
  3.5264436e-002  5.9301912e-002
  1.6169717e-002  3.8266309e-002
  3.9914587e-003  2.3574104e-002
 -5.9513086e-003  1.4368855e-002
 -1.8043168e-002  6.1183274e-003
 -3.2607041e-002 -5.2190620e-003
 -4.5519133e-002 -1.9525122e-002
 -5.1564606e-002 -3.2372386e-002
 -4.8950127e-002 -3.8598109e-002
 -4.1189014e-002 -3.6627786e-002
 -3.4915745e-002 -3.0040645e-002
 -3.5090197e-002 -2.4975548e-002
 -4.1362134e-002 -2.5587241e-002
 -4.8541790e-002 -3.1246391e-002
 -5.0749232e-002 -3.7664367e-002
 -4.6064893e-002 -4.0861641e-002
 -3.7930073e-002 -4.0525835e-002
 -3.2307834e-002 -3.9947639e-002
 -3.2856211e-002 -4.2678564e-002
 -3.7969710e-002 -4.8817996e-002
 -4.2047501e-002 -5.4337348e-002
 -4.0005079e-002 -5.4242861e-002
 -3.1434663e-002 -4.7075345e-002
 -2.1140682e-002 -3.6901097e-002
 -1.5449920e-002 -3.0714649e-002
 -1.7380562e-002 -3.3203501e-002
 -2.4373897e-002 -4.2850901e-002
 -3.0355038e-002 -5.2712614e-002
 -3.0505611e-002 -5.5501718e-002
 -2.4973910e-002 -4.9153265e-002
 -1.8610947e-002 -3.8497599e-002
 -1.6979981e-002 -3.1594448e-002
 -2.1749351e-002 -3.3483856e-002
 -2.9269595e-002 -4.2300124e-002
 -3.3377490e-002 -5.0798839e-002
 -3.0324857e-002 -5.2231533e-002
 -2.1796403e-002 -4.5816301e-002
 -1.3778756e-002 -3.7573539e-002
 -1.2080981e-002 -3.5675176e-002
 -1.7906477e-002 -4.3906797e-002
 -2.6892997e-002 -5.8402187e-002
 -3.2352460e-002 -7.0314966e-002
 -3.0126705e-002 -7.2490145e-002
 -2.1304736e-002 -6.4869620e-002
 -1.0986788e-002 -5.4541002e-002
 -4.1455001e-003 -5.0260726e-002
 -2.1047782e-003 -5.5813013e-002
 -2.1948459e-003 -6.7188222e-002
 -7.3386963e-004 -7.5823743e-002
  3.3819873e-003 -7.5296077e-002
  7.4613956e-003 -6.6251374e-002
  7.1990972e-003 -5.5847518e-002
  5.0469722e-004 -5.2192557e-002
 -1.0204093e-002 -5.8225318e-002
 -1.9201070e-002 -6.9730297e-002
 -2.1373845e-002 -7.8792926e-002
 -1.5769974e-002 -7.9849404e-002
 -6.2466663e-003 -7.3532719e-002
  1.2952185e-003 -6.5609500e-002
  2.9016016e-003 -6.2120933e-002
 -1.1707779e-003 -6.4841599e-002
 -7.3870184e-003 -7.0596349e-002
 -1.1965668e-002 -7.4557778e-002
 -1.3448715e-002 -7.4432741e-002
 -1.2940148e-002 -7.1918664e-002
 -1.2190015e-002 -7.0435338e-002
 -1.1609381e-002 -7.1427054e-002
 -1.0072031e-002 -7.2775796e-002
 -6.5732614e-003 -7.0885463e-002
 -2.1119415e-003 -6.4652832e-002
  1.9876773e-004 -5.7597462e-002
 -2.6589106e-003 -5.5783064e-002
 -1.0768829e-002 -6.2838216e-002
 -2.0307867e-002 -7.6234418e-002
 -2.5613826e-002 -8.8308016e-002
 -2.2991704e-002 -9.1617590e-002
 -1.3501369e-002 -8.4611275e-002
 -2.4985095e-003 -7.2747451e-002
  3.8299251e-003 -6.3981113e-002
  2.5450182e-003 -6.2128529e-002
 -4.4422351e-003 -6.3382345e-002
 -1.2150594e-002 -5.9536159e-002
 -1.6210138e-002 -4.5599783e-002
 -1.5472965e-002 -2.5476926e-002
 -1.1722110e-002 -1.0430694e-002
 -7.0418240e-003 -1.0622651e-002
 -1.4744956e-003 -2.6131571e-002
  6.9596321e-003 -4.4991152e-002
  1.9933755e-002 -5.0929693e-002
  3.6350833e-002 -3.5758139e-002
  5.2038080e-002 -7.0732469e-003
  6.2137621e-002  1.5565770e-002
  6.4181037e-002  1.4056774e-002
  5.9127759e-002 -1.4783572e-002
  4.9525054e-002 -5.6137285e-002
  3.6501181e-002 -8.7428154e-002
  1.8791521e-002 -9.4638254e-002
 -4.9106468e-003 -8.2381764e-002
 -3.1950048e-002 -6.9554066e-002
 -5.4227723e-002 -7.3578192e-002
 -6.1795317e-002 -9.5530967e-002
 -5.0249423e-002 -1.1860725e-001
 -2.6339796e-002 -1.2218998e-001
 -6.2069217e-003 -1.0097958e-001
 -5.4235487e-003 -7.3089658e-002
 -2.6622281e-002 -6.8058318e-002
 -5.3853172e-002 -1.0113925e-001
 -5.9773343e-002 -1.5262816e-001
 -2.3199566e-002 -1.7032716e-001
  5.3398363e-002 -9.8586598e-002
  1.3893272e-001  8.2155215e-002
  1.8679132e-001  3.3159148e-001
  1.5999984e-001  5.6022795e-001
  5.3868064e-002  6.7207087e-001
 -9.8173926e-002  6.1562292e-001
 -2.3996770e-001  4.1266680e-001
 -3.2069420e-001  1.4719450e-001
 -3.1940701e-001 -7.8924180e-002
 -2.5226018e-001 -1.9701721e-001
 -1.5952774e-001 -1.9991519e-001
 -8.1826704e-002 -1.3376930e-001
 -4.0391536e-002 -6.2583375e-002
 -3.1963863e-002 -2.9940403e-002
 -3.8485103e-002 -4.0735614e-002
 -4.2654805e-002 -6.9969023e-002
 -3.8402201e-002 -8.7727375e-002
 -3.0706765e-002 -8.0966748e-002
 -2.7513268e-002 -5.8472664e-002
 -3.1400672e-002 -3.9196466e-002
 -3.7536209e-002 -3.5695169e-002
 -3.8464246e-002 -4.5677996e-002
 -3.0882680e-002 -5.6501958e-002
 -1.8537106e-002 -5.6985524e-002
 -9.0860405e-003 -4.6263957e-002
 -7.8840733e-003 -3.3109599e-002
 -1.3740934e-002 -2.7431205e-002
 -2.0071028e-002 -3.1763015e-002
 -2.0147848e-002 -3.9644162e-002
 -1.2217861e-002 -4.1685548e-002
 -2.9817639e-004 -3.3683564e-002
  9.4934656e-003 -1.9995733e-002
  1.4075755e-002 -9.5969682e-003
  1.5698259e-002 -8.3982032e-003
  1.9721669e-002 -1.4323855e-002
  2.9935141e-002 -1.9039384e-002
  4.5196763e-002 -1.4812384e-002
  6.0063222e-002 -8.8961090e-004
  6.8951639e-002  1.5845429e-002
  7.0472474e-002  2.6322850e-002
  6.8548442e-002  2.6420926e-002
  6.9657466e-002  2.0246561e-002
  7.8287867e-002  1.7080047e-002
  9.4070685e-002  2.4575917e-002
  1.1250771e-001  4.3394014e-002
  1.2845775e-001  6.7194988e-002
  1.3954812e-001  8.7567362e-002
  1.4725309e-001  9.9946164e-002
  1.5505608e-001  1.0599466e-001
  1.6544215e-001  1.1117577e-001
  1.7796937e-001  1.1981686e-001
  1.8963759e-001  1.3179809e-001
  1.9679166e-001  1.4308091e-001
  1.9701113e-001  1.4921219e-001
  1.8979332e-001  1.4871317e-001
  1.7612077e-001  1.4368507e-001
  1.5763864e-001  1.3741486e-001
  1.3622718e-001  1.3129838e-001
  1.1386776e-001  1.2365799e-001
  9.2402841e-002  1.1139142e-001
  7.2864018e-002  9.2869267e-002
  5.4779623e-002  6.9588873e-002
  3.6478121e-002  4.5415471e-002
  1.6530754e-002  2.4206371e-002
 -4.6477323e-003  7.6736701e-003
 -2.4162178e-002 -5.0407939e-003
 -3.8099617e-002 -1.5834522e-002
 -4.4131036e-002 -2.5748936e-002
 -4.3549219e-002 -3.4317957e-002
 -4.0982270e-002 -4.0461914e-002
 -4.1647172e-002 -4.3794364e-002
 -4.7822428e-002 -4.5021991e-002
 -5.7158631e-002 -4.5101181e-002
 -6.4201790e-002 -4.4139317e-002
 -6.4078313e-002 -4.1190837e-002
 -5.5851386e-002 -3.5372970e-002
 -4.3145467e-002 -2.7402177e-002
 -3.1666263e-002 -2.0073947e-002
 -2.5475143e-002 -1.6917436e-002
 -2.4723065e-002 -1.9807037e-002
 -2.6336139e-002 -2.7338837e-002
 -2.6893095e-002 -3.5337270e-002
 -2.5287984e-002 -3.9265409e-002
 -2.3222826e-002 -3.6969334e-002
 -2.3331482e-002 -2.9888101e-002
 -2.6666490e-002 -2.1950546e-002
 -3.1703620e-002 -1.7083356e-002
 -3.5542972e-002 -1.7029619e-002
 -3.6303590e-002 -2.0909879e-002
 -3.4651905e-002 -2.6419054e-002
 -3.3178842e-002 -3.1541292e-002
 -3.4216396e-002 -3.5518746e-002
 -3.7895098e-002 -3.8698063e-002
 -4.2019826e-002 -4.1714451e-002
 -4.3843444e-002 -4.4823781e-002
 -4.2235166e-002 -4.7803059e-002
 -3.8545257e-002 -5.0230188e-002
 -3.5542467e-002 -5.1710738e-002
 -3.5306842e-002 -5.1852224e-002
 -3.7847816e-002 -5.0330314e-002
 -4.1385078e-002 -4.7200393e-002
 -4.3917462e-002 -4.3363268e-002
 -4.4662756e-002 -4.0522285e-002
 -4.4188620e-002 -4.0305229e-002
 -4.3500977e-002 -4.3008387e-002
 -4.3006455e-002 -4.6929806e-002
 -4.2475488e-002 -4.9175645e-002
 -4.1818217e-002 -4.7612128e-002
 -4.1829412e-002 -4.2727505e-002
 -4.3814564e-002 -3.7800902e-002
 -4.8119596e-002 -3.6819547e-002
 -5.2984145e-002 -4.1584691e-002
 -5.4967820e-002 -5.0042668e-002
 -5.1130254e-002 -5.7391427e-002
 -4.1532708e-002 -5.9284608e-002
 -2.9952531e-002 -5.4880268e-002
 -2.1982512e-002 -4.7445568e-002
 -2.1431229e-002 -4.1924500e-002
 -2.7763071e-002 -4.1341169e-002
 -3.6429837e-002 -4.4806837e-002
 -4.2119510e-002 -4.8625214e-002
 -4.2435806e-002 -4.9616462e-002
 -3.9423381e-002 -4.7793454e-002
 -3.7551780e-002 -4.6204410e-002
 -3.9984720e-002 -4.8047941e-002
 -4.5942448e-002 -5.3511696e-002
 -5.1293390e-002 -5.9108557e-002
 -5.1842375e-002 -6.0268626e-002
 -4.6660656e-002 -5.5192468e-002
 -3.8760479e-002 -4.6749198e-002
 -3.2559451e-002 -4.0617930e-002
 -3.0240559e-002 -4.0915155e-002
 -3.0125024e-002 -4.6889673e-002
 -2.8438514e-002 -5.3426736e-002
 -2.3024251e-002 -5.5118805e-002
 -1.5910301e-002 -5.0740989e-002
 -1.2352104e-002 -4.4313886e-002
 -1.6773025e-002 -4.2156221e-002
 -2.8707527e-002 -4.7729466e-002
 -4.2109242e-002 -5.8555028e-002
 -4.8943336e-002 -6.7861663e-002
 -4.4663679e-002 -6.9593229e-002
 -3.1530358e-002 -6.2727704e-002
 -1.7250474e-002 -5.1363461e-002
 -9.8696897e-003 -4.0696234e-002
 -1.2571701e-002 -3.2489628e-002
 -2.2025528e-002 -2.4112416e-002
 -3.1128191e-002 -1.2143284e-002
 -3.3819652e-002  2.6865741e-003
 -2.8340943e-002  1.4030814e-002
 -1.7005580e-002  1.4178590e-002
 -3.1892075e-003  1.1545598e-003
  1.1294521e-002 -1.7451998e-002
  2.6444879e-002 -2.8128945e-002
  4.2091177e-002 -2.0989180e-002
  5.6079282e-002  1.7045019e-003
  6.4681749e-002  2.5160170e-002
  6.5098051e-002  3.1385825e-002
  5.7803565e-002  1.2059260e-002
  4.6334865e-002 -2.4740079e-002
  3.4360458e-002 -5.9686501e-002
  2.2476785e-002 -7.6155058e-002
  8.0300201e-003 -7.2431466e-002
 -1.1479017e-002 -6.2521669e-002
 -3.4069435e-002 -6.4285474e-002
 -5.2328292e-002 -8.3887123e-002
 -5.7819615e-002 -1.0932574e-001
 -4.8258940e-002 -1.1949320e-001
 -3.1533386e-002 -1.0277412e-001
 -2.1883829e-002 -7.0291980e-002
 -2.9326357e-002 -5.1089795e-002
 -4.9396617e-002 -6.9590143e-002
 -6.1888587e-002 -1.2040867e-001
 -4.2159519e-002 -1.6071313e-001
  2.0645407e-002 -1.3030221e-001
  1.1040783e-001  9.5534576e-003
  1.8645677e-001  2.4261454e-001
  2.0299148e-001  4.9372564e-001
  1.3525954e-001  6.6120032e-001
 -3.2257434e-003  6.6925630e-001
 -1.6412794e-001  5.0969221e-001
 -2.8749661e-001  2.4754161e-001
 -3.3157173e-001 -1.3043527e-002
 -2.9212012e-001 -1.8232306e-001
 -2.0057670e-001 -2.2652796e-001
 -1.0372652e-001 -1.7500503e-001
 -3.8037697e-002 -9.2604573e-002
 -1.4027103e-002 -3.7760975e-002
 -1.7978186e-002 -3.2743881e-002
 -2.6841088e-002 -6.1367334e-002
 -2.4831817e-002 -9.0259566e-002
 -1.1181470e-002 -9.5665540e-002
  3.9606877e-003 -7.7436146e-002
  1.0046032e-002 -5.3587803e-002
  4.4661223e-003 -4.3128071e-002
 -6.6757928e-003 -5.1443436e-002
 -1.4413390e-002 -6.8337261e-002
 -1.3835932e-002 -7.8049032e-002
 -6.6757248e-003 -7.1914073e-002
  1.4582886e-003 -5.3885702e-002
  6.1527451e-003 -3.5923553e-002
  7.1729595e-003 -2.8149828e-002
  7.5614343e-003 -3.1803180e-002
  1.0318511e-002 -3.9833318e-002
  1.5970219e-002 -4.3434598e-002
  2.2801708e-002 -3.8656456e-002
  2.8974937e-002 -2.8176864e-002
  3.4280916e-002 -1.7717462e-002
  3.9774884e-002 -1.1009910e-002
  4.5923198e-002 -7.5733249e-003
  5.1537175e-002 -4.5024623e-003
  5.4859807e-002  7.9447741e-005
  5.6054311e-002  5.3586674e-003
  5.8524177e-002  9.2756955e-003
  6.7228602e-002  1.1475151e-002
  8.4744803e-002  1.4541269e-002
  1.0813204e-001  2.2196428e-002
  1.2978678e-001  3.5950378e-002
  1.4229903e-001  5.3256843e-002
  1.4421309e-001  6.9111632e-002
  1.4201568e-001  7.9911331e-002
  1.4625594e-001  8.6235830e-002
  1.6412665e-001  9.2157128e-002
  1.9364794e-001  1.0136125e-001
  2.2414462e-001  1.1349348e-001
  2.4290459e-001  1.2385018e-001
  2.4357994e-001  1.2709456e-001
  2.3021284e-001  1.2199534e-001
  2.1390252e-001  1.1314186e-001
  2.0452659e-001  1.0788135e-001
  2.0356491e-001  1.1059230e-001
  2.0325786e-001  1.1880571e-001
  1.9268406e-001  1.2445285e-001
  1.6608383e-001  1.1958041e-001
  1.2738607e-001  1.0227956e-001
  8.7697804e-002  7.8251268e-002
  5.7797816e-002  5.6690463e-002
  4.1305744e-002  4.3575260e-002
  3.3422655e-002  3.7551678e-002
  2.5694337e-002  3.1559263e-002
  1.2792992e-002  1.8892733e-002
 -3.8286705e-003 -1.0721359e-003
 -1.7927700e-002 -2.1930854e-002
 -2.4062946e-002 -3.4899957e-002
 -2.2006190e-002 -3.5424691e-002
 -1.6805906e-002 -2.6656718e-002
 -1.4504765e-002 -1.7281913e-002
 -1.7380113e-002 -1.5450183e-002
 -2.2578711e-002 -2.3202698e-002
 -2.5036877e-002 -3.5602298e-002
 -2.2132759e-002 -4.4845818e-002
 -1.6010674e-002 -4.5977601e-002
 -1.1744896e-002 -3.9942744e-002
 -1.2787709e-002 -3.1950601e-002
 -1.7760430e-002 -2.7057047e-002
 -2.1302879e-002 -2.6595403e-002
 -1.8521365e-002 -2.8167582e-002
 -9.4777159e-003 -2.8653687e-002
  2.1049488e-004 -2.7289066e-002
  3.2628645e-003 -2.6112432e-002
 -3.6740132e-003 -2.7535488e-002
 -1.7116166e-002 -3.1478557e-002
 -2.8976884e-002 -3.4837706e-002
 -3.2281053e-002 -3.3934792e-002
 -2.6138335e-002 -2.8007894e-002
 -1.6289455e-002 -2.0604724e-002
 -1.0751447e-002 -1.7324578e-002
 -1.4019418e-002 -2.1540664e-002
 -2.4140744e-002 -3.1497517e-002
 -3.4721719e-002 -4.1312038e-002
 -4.0086455e-002 -4.5310683e-002
 -3.9429434e-002 -4.2323533e-002
 -3.6892130e-002 -3.6576329e-002
 -3.7728686e-002 -3.4345489e-002
 -4.3816943e-002 -3.8902560e-002
 -5.2133684e-002 -4.7782416e-002
 -5.7303273e-002 -5.4588172e-002
 -5.6043100e-002 -5.4019605e-002
 -4.9833936e-002 -4.6187713e-002
 -4.3785315e-002 -3.6862836e-002
 -4.2681449e-002 -3.3382136e-002
 -4.7479484e-002 -3.9336522e-002
 -5.4973933e-002 -5.2042207e-002
 -6.0742952e-002 -6.4616880e-002
 -6.2861244e-002 -7.0962177e-002
 -6.3206960e-002 -6.9750541e-002
 -6.5421145e-002 -6.4566176e-002
 -7.1275403e-002 -6.0369607e-002
 -7.8691186e-002 -5.9446870e-002
 -8.3098205e-002 -6.0074152e-002
 -8.1158710e-002 -5.8765541e-002
 -7.3818709e-002 -5.4001273e-002
 -6.6107272e-002 -4.8151020e-002
 -6.3780478e-002 -4.5948394e-002
 -6.9222961e-002 -5.0662635e-002
 -7.9866660e-002 -6.1190848e-002
 -9.0200970e-002 -7.2478961e-002
 -9.5770777e-002 -7.9036390e-002
 -9.6055350e-002 -7.8742687e-002
 -9.4147605e-002 -7.4035256e-002
 -9.3840487e-002 -6.9672696e-002
 -9.6618854e-002 -6.8968368e-002
 -1.0097955e-001 -7.1539707e-002
 -1.0430136e-001 -7.4143129e-002
 -1.0541121e-001 -7.3792744e-002
 -1.0545331e-001 -7.0326318e-002
 -1.0645842e-001 -6.6421338e-002
 -1.0889000e-001 -6.5273470e-002
 -1.1074274e-001 -6.8098423e-002
 -1.0914094e-001 -7.3301110e-002
 -1.0326373e-001 -7.8129601e-002
 -9.5952073e-002 -8.1014993e-002
 -9.2335048e-002 -8.2630355e-002
 -9.6094723e-002 -8.4650422e-002
 -1.0636344e-001 -8.7675995e-002
 -1.1779753e-001 -9.0276329e-002
 -1.2416915e-001 -9.0252965e-002
 -1.2276803e-001 -8.6966799e-002
 -1.1629535e-001 -8.2515958e-002
 -1.1069873e-001 -8.0412162e-002
 -1.1059887e-001 -8.2682462e-002
 -1.1594020e-001 -8.7962915e-002
 -1.2241749e-001 -9.2425191e-002
 -1.2524758e-001 -9.2991868e-002
 -1.2311808e-001 -9.0090095e-002
 -1.1898238e-001 -8.7239272e-002
 -1.1709356e-001 -8.7473031e-002
 -1.1885023e-001 -8.9578995e-002
 -1.2115360e-001 -8.7968857e-002
 -1.1884887e-001 -7.7068084e-002
 -1.0941869e-001 -5.7205701e-002
 -9.5777239e-002 -3.6792463e-002
 -8.4474132e-002 -2.7795206e-002
 -8.0466102e-002 -3.6942122e-002
 -8.2497261e-002 -5.9007550e-002
 -8.3255343e-002 -7.8330853e-002
 -7.4726594e-002 -7.8860420e-002
 -5.4915447e-002 -5.6279430e-002
 -3.0532254e-002 -2.3019825e-002
 -1.3186710e-002 -1.3827116e-003
 -1.1564893e-002 -8.5624500e-003
 -2.5540326e-002 -4.4070477e-002
 -4.6782055e-002 -8.9137364e-002
 -6.5351464e-002 -1.1933756e-001
 -7.7104899e-002 -1.2184098e-001
 -8.5862392e-002 -1.0452841e-001
 -9.8472336e-002 -8.9581735e-002
 -1.1699811e-001 -9.5885842e-002
 -1.3502775e-001 -1.2351813e-001
 -1.4193408e-001 -1.5276555e-001
 -1.3229764e-001 -1.5954547e-001
 -1.1265123e-001 -1.3604603e-001
 -9.8625097e-002 -1.0003991e-001
 -1.0303665e-001 -8.3615364e-002
 -1.2316072e-001 -1.0723016e-001
 -1.3796590e-001 -1.5753140e-001
 -1.2003612e-001 -1.8724467e-001
 -5.6161381e-002 -1.4132025e-001
  3.7357033e-002  5.2188731e-003
  1.1704569e-001  2.2248722e-001
  1.3369882e-001  4.3247833e-001
  6.1313935e-002  5.4645103e-001
 -8.4508321e-002  5.1196551e-001
 -2.5121955e-001  3.4148912e-001
 -3.7545325e-001  1.0539894e-001
 -4.1539821e-001 -1.0595192e-001
 -3.7031052e-001 -2.2788671e-001
 -2.7638227e-001 -2.4841448e-001
 -1.8310206e-001 -2.0336001e-001
 -1.2574003e-001 -1.4677256e-001
 -1.1047147e-001 -1.1750431e-001
 -1.1896222e-001 -1.2225291e-001
 -1.2628334e-001 -1.4185077e-001
 -1.1852677e-001 -1.5202116e-001
 -9.8927432e-002 -1.4201377e-001
 -8.0744781e-002 -1.1933636e-001
 -7.4597494e-002 -1.0028392e-001
 -8.0249321e-002 -9.5974401e-002
 -8.8353537e-002 -1.0490684e-001
 -8.9160884e-002 -1.1632935e-001
 -8.0538550e-002 -1.2004825e-001
 -6.9075028e-002 -1.1414239e-001
 -6.3921654e-002 -1.0489426e-001
 -6.8865108e-002 -1.0022241e-001
 -7.9032997e-002 -1.0273076e-001
 -8.4547196e-002 -1.0801045e-001
 -7.8048948e-002 -1.0897005e-001
 -6.0115180e-002 -1.0196823e-001
 -3.8715004e-002 -8.9629329e-002
 -2.3460131e-002 -7.8274924e-002
 -1.9113774e-002 -7.2541205e-002
 -2.3056067e-002 -7.1868569e-002
 -2.7894053e-002 -7.1557943e-002
 -2.6845440e-002 -6.7231128e-002
 -1.7735878e-002 -5.8642273e-002
 -3.2028117e-003 -4.9657075e-002
  1.2137282e-002 -4.4683174e-002
  2.4967728e-002 -4.4634634e-002
  3.4595376e-002 -4.5912593e-002
  4.2180620e-002 -4.3166257e-002
  4.9211200e-002 -3.3501024e-002
  5.6866443e-002 -1.8628252e-002
  6.6447781e-002 -3.3028079e-003
  7.9795903e-002  8.5552903e-003
  9.8454895e-002  1.6683366e-002
  1.2194658e-001  2.4089986e-002
  1.4663536e-001  3.3959083e-002
  1.6672084e-001  4.6638019e-002
  1.7717234e-001  5.9216681e-002
  1.7675347e-001  6.7997898e-002
  1.6873906e-001  7.1561673e-002
  1.5859508e-001  7.1716485e-002
  1.5018360e-001  7.1529053e-002
  1.4312081e-001  7.2043334e-002
  1.3342520e-001  7.0802042e-002
  1.1686029e-001  6.3513404e-002
  9.2413400e-002  4.7643576e-002
  6.3311453e-002  2.5017025e-002
  3.4893458e-002  1.0974182e-003
  1.1098616e-002 -1.8635889e-002
 -7.5892518e-003 -3.2396247e-002
 -2.3417556e-002 -4.3038676e-002
 -3.8489653e-002 -5.5356242e-002
 -5.2334466e-002 -7.1856728e-002
 -6.2009119e-002 -9.0442023e-002
 -6.4599792e-002 -1.0573338e-001
 -6.0069106e-002 -1.1302324e-001
 -5.2006043e-002 -1.1169632e-001
 -4.5613489e-002 -1.0562140e-001
 -4.4354159e-002 -1.0016341e-001
 -4.7866728e-002 -9.8432039e-002
 -5.2617439e-002 -9.9495865e-002
 -5.4799077e-002 -1.0000709e-001
 -5.3032933e-002 -9.7533584e-002
 -4.9087986e-002 -9.2637663e-002
 -4.6069029e-002 -8.8384668e-002
 -4.5822396e-002 -8.7633179e-002
 -4.7643725e-002 -9.0438465e-002
 -4.9084753e-002 -9.3814341e-002
 -4.8027465e-002 -9.4074266e-002
 -4.4308351e-002 -8.9772961e-002
 -3.9453667e-002 -8.2814916e-002
 -3.5124056e-002 -7.6937881e-002
 -3.1678131e-002 -7.4827540e-002
 -2.8187441e-002 -7.6273756e-002
 -2.3804675e-002 -7.8827810e-002
 -1.9030479e-002 -8.0093411e-002
 -1.5652531e-002 -7.9713817e-002
 -1.5316810e-002 -7.9347360e-002
 -1.7917814e-002 -8.0804659e-002
 -2.1444733e-002 -8.4120112e-002
 -2.3505056e-002 -8.7367144e-002
 -2.3413651e-002 -8.8441977e-002
 -2.2901670e-002 -8.7167265e-002
 -2.4737198e-002 -8.5719467e-002
 -3.0098621e-002 -8.6800905e-002
 -3.7051725e-002 -9.1045343e-002
 -4.1470851e-002 -9.6019150e-002
 -4.0070569e-002 -9.7929028e-002
 -3.3257760e-002 -9.4879136e-002
 -2.5392096e-002 -8.8988921e-002
 -2.2092193e-002 -8.5385231e-002
 -2.6272698e-002 -8.8419105e-002
 -3.5936763e-002 -9.8008178e-002
 -4.5443415e-002 -1.0910473e-001
 -4.9346815e-002 -1.1495760e-001
 -4.6118738e-002 -1.1202788e-001
 -3.8947612e-002 -1.0278429e-001
 -3.3184770e-002 -9.4179197e-002
 -3.2358966e-002 -9.2807520e-002
 -3.5824703e-002 -1.0022042e-001
 -3.9548608e-002 -1.1183618e-001
 -3.9398898e-002 -1.2031615e-001
 -3.4266578e-002 -1.2077367e-001
 -2.6678789e-002 -1.1397625e-001
 -2.0738349e-002 -1.0532827e-001
 -1.9102353e-002 -1.0061976e-001
 -2.1364032e-002 -1.0188940e-001
 -2.4908937e-002 -1.0644877e-001
 -2.7119283e-002 -1.0940881e-001
 -2.7224331e-002 -1.0755331e-001
 -2.6318500e-002 -1.0145279e-001
 -2.5815167e-002 -9.4737612e-002
 -2.6008038e-002 -9.0977629e-002
 -2.5994936e-002 -9.1181925e-002
 -2.4868326e-002 -9.3650012e-002
 -2.2992536e-002 -9.5948867e-002
 -2.1859111e-002 -9.6910861e-002
 -2.2657946e-002 -9.7077603e-002
 -2.4809705e-002 -9.7412501e-002
 -2.6103239e-002 -9.7882139e-002
 -2.4452119e-002 -9.7313193e-002
 -2.0067617e-002 -9.4864146e-002
 -1.5925111e-002 -9.1461841e-002
 -1.5846792e-002 -8.9659344e-002
 -2.1348892e-002 -9.1558816e-002
 -2.9831863e-002 -9.6604300e-002
 -3.5797081e-002 -1.0136897e-001
 -3.4500466e-002 -1.0191623e-001
 -2.5450360e-002 -9.7103077e-002
 -1.3078585e-002 -9.0022536e-002
 -3.9686619e-003 -8.6074465e-002
 -2.4796057e-003 -8.8859428e-002
 -7.9832711e-003 -9.7140535e-002
 -1.5763016e-002 -1.0553463e-001
 -2.0590873e-002 -1.0855533e-001
 -2.0346839e-002 -1.0486356e-001
 -1.6868720e-002 -9.8098210e-002
 -1.3716670e-002 -9.3445175e-002
 -1.2927713e-002 -9.2795563e-002
 -1.3427406e-002 -9.2635229e-002
 -1.2281417e-002 -8.6960499e-002
 -7.5008957e-003 -7.3168149e-002
  1.6557336e-004 -5.5856257e-002
  8.0986795e-003 -4.4698778e-002
  1.4540266e-002 -4.7152233e-002
  2.0475844e-002 -6.1604893e-002
  2.8883963e-002 -7.6803944e-002
  4.1691107e-002 -7.9148881e-002
  5.7119026e-002 -6.3095303e-002
  6.9806602e-002 -3.6708569e-002
  7.4222871e-002 -1.7356532e-002
  6.8610348e-002 -1.9891814e-002
  5.6252591e-002 -4.5720256e-002
  4.2705221e-002 -8.1286036e-002
  3.1158275e-002 -1.0764603e-001
  1.9991419e-002 -1.1425193e-001
  4.9877194e-003 -1.0628797e-001
 -1.5387399e-002 -9.9630530e-002
 -3.6265841e-002 -1.0701752e-001
 -4.8128193e-002 -1.2647451e-001
 -4.3905073e-002 -1.4208491e-001
 -2.6145633e-002 -1.3761350e-001
 -7.7277769e-003 -1.1266033e-001
 -3.7233073e-003 -8.7174698e-002
 -1.9029144e-002 -8.7992604e-002
 -4.0924904e-002 -1.2487240e-001
 -4.4005369e-002 -1.7380384e-001
 -6.4521815e-003 -1.8292399e-001
  7.1900286e-002 -1.0195240e-001
  1.6250880e-001  8.1349479e-002
  2.1909185e-001  3.2199728e-001
  2.0220199e-001  5.3169795e-001
  1.0318626e-001  6.2124943e-001
 -4.7543031e-002  5.4785643e-001
 -1.9410287e-001  3.3918153e-001
 -2.8315016e-001  7.9418465e-002
 -2.9010500e-001 -1.3450861e-001
 -2.2853949e-001 -2.4063612e-001
 -1.3841953e-001 -2.3655463e-001
 -6.1787764e-002 -1.6921041e-001
 -2.1253534e-002 -1.0006196e-001
 -1.3402223e-002 -6.9208810e-002
 -1.8392116e-002 -7.9357877e-002
 -1.7065425e-002 -1.0556813e-001
 -3.3434682e-003 -1.1949608e-001
  1.5120400e-002 -1.0980598e-001
  2.6039600e-002 -8.6189468e-002
  2.3156618e-002 -6.7592142e-002
  1.0679859e-002 -6.5961644e-002
 -9.4806101e-004 -7.8125036e-002
 -3.2352579e-003 -9.0306605e-002
  4.6766472e-003 -9.0056409e-002
  1.6824948e-002 -7.5584775e-002
  2.6063443e-002 -5.5909154e-002
  2.9568820e-002 -4.2941543e-002
  3.0066295e-002 -4.2437290e-002
  3.2479861e-002 -5.0676962e-002
  3.9366976e-002 -5.8624066e-002
  4.9030996e-002 -5.9274305e-002
  5.7565675e-002 -5.2269141e-002
  6.2601288e-002 -4.2623174e-002
  6.5365891e-002 -3.5619014e-002
  6.9322354e-002 -3.2450421e-002
  7.6762547e-002 -3.0047218e-002
  8.6530731e-002 -2.4559213e-002
  9.4966161e-002 -1.5087425e-002
  9.9293348e-002 -4.4048359e-003
  1.0054770e-001  3.7755436e-003
  1.0347780e-001  8.3396549e-003
  1.1311191e-001  1.1922033e-002
  1.3081010e-001  1.8700517e-002
  1.5292807e-001  3.0915330e-002
  1.7330676e-001  4.7066793e-002
  1.8760909e-001  6.3249100e-002
  1.9624282e-001  7.6380391e-002
  2.0349254e-001  8.6486267e-002
  2.1375087e-001  9.6138769e-002
  2.2778863e-001  1.0765068e-001
  2.4204088e-001  1.2060726e-001
  2.5137451e-001  1.3200425e-001
  2.5303859e-001  1.3885482e-001
  2.4846271e-001  1.4090448e-001
  2.4158025e-001  1.4086019e-001
  2.3500593e-001  1.4171727e-001
  2.2736053e-001  1.4338091e-001
  2.1402575e-001  1.4159983e-001
  1.9096825e-001  1.3056766e-001
  1.5859730e-001  1.0751238e-001
  1.2273358e-001  7.5778897e-002
  9.1557887e-002  4.3741539e-002
  7.0749886e-002  1.9926474e-002
  6.0338449e-002  7.8622965e-003
  5.5408157e-002  4.2754177e-003
  4.9972821e-002  1.8265421e-003
  4.1108687e-002 -5.5567732e-003
  3.0314256e-002 -1.8829286e-002
  2.1483391e-002 -3.3888740e-002
  1.7270176e-002 -4.5267284e-002
  1.6810783e-002 -5.0324563e-002
  1.6599153e-002 -5.0698806e-002
  1.3476573e-002 -5.0289490e-002
  7.2851138e-003 -5.1722171e-002
  9.8952915e-004 -5.4340228e-002
 -1.6864647e-003 -5.5236772e-002
  7.5806130e-004 -5.2204854e-002
  6.4090005e-003 -4.6043575e-002
  1.1466422e-002 -4.0137606e-002
  1.3260863e-002 -3.7672038e-002
  1.2347470e-002 -3.8838044e-002
  1.2075141e-002 -4.0469475e-002
  1.5951760e-002 -3.8481984e-002
  2.4787792e-002 -3.1249384e-002
  3.5803364e-002 -2.1102021e-002
  4.4246955e-002 -1.2847325e-002
  4.6301158e-002 -1.0350680e-002
  4.1391516e-002 -1.3887347e-002
  3.2231792e-002 -1.9996173e-002
  2.2984962e-002 -2.4207221e-002
  1.6925843e-002 -2.4218149e-002
  1.5033145e-002 -2.1103548e-002
  1.6206313e-002 -1.7847815e-002
  1.8498074e-002 -1.6716191e-002
  2.0244128e-002 -1.7634447e-002
  2.0594617e-002 -1.8753352e-002
  1.9515043e-002 -1.8422614e-002
  1.7544571e-002 -1.6811248e-002
  1.5575846e-002 -1.5821560e-002
  1.4654242e-002 -1.7355072e-002
  1.5637861e-002 -2.1554538e-002
  1.8602447e-002 -2.6687855e-002
  2.2613593e-002 -3.0591347e-002
  2.6008544e-002 -3.2531768e-002
  2.7332902e-002 -3.3716536e-002
  2.6265732e-002 -3.6099023e-002
  2.3776704e-002 -4.0484724e-002
  2.1441045e-002 -4.5630475e-002
  2.0415726e-002 -4.9115829e-002
  2.0853734e-002 -4.9310634e-002
  2.2092782e-002 -4.6782326e-002
  2.3479420e-002 -4.3909152e-002
  2.4905993e-002 -4.3033634e-002
  2.6605336e-002 -4.4735714e-002
  2.8367208e-002 -4.7689804e-002
  2.9156465e-002 -5.0045963e-002
  2.7710866e-002 -5.1091794e-002
  2.3872928e-002 -5.1664387e-002
  1.9523614e-002 -5.3017677e-002
  1.8006177e-002 -5.5210157e-002
  2.2082277e-002 -5.6612455e-002
  3.1593470e-002 -5.5247967e-002
  4.2766989e-002 -5.0835245e-002
  5.0064805e-002 -4.5590837e-002
  4.9613350e-002 -4.2796423e-002
  4.1825396e-002 -4.4261548e-002
  3.1525172e-002 -4.8756396e-002
  2.4984292e-002 -5.2720238e-002
  2.5981203e-002 -5.3182326e-002
  3.3507290e-002 -5.0383591e-002
  4.2636532e-002 -4.7901378e-002
  4.7962898e-002 -4.9767039e-002
  4.7194470e-002 -5.6779217e-002
  4.2298837e-002 -6.5178129e-002
  3.7720871e-002 -6.9080863e-002
  3.7138278e-002 -6.5020200e-002
  4.1186511e-002 -5.5044351e-002
  4.7627322e-002 -4.5637502e-002
  5.3524741e-002 -4.2940275e-002
  5.7426526e-002 -4.7843933e-002
  5.9907962e-002 -5.4882927e-002
  6.2287942e-002 -5.6155185e-002
  6.4880064e-002 -4.7509629e-002
  6.6422035e-002 -3.2162164e-002
  6.5228936e-002 -1.8805565e-002
  6.0953152e-002 -1.5359932e-002
  5.5294494e-002 -2.3115112e-002
  5.0956179e-002 -3.5707127e-002
  4.9716795e-002 -4.3835543e-002
  5.1230264e-002 -4.2152156e-002
  5.3561301e-002 -3.3007062e-002
  5.5044315e-002 -2.4271851e-002
  5.5677553e-002 -2.3019919e-002
  5.6860281e-002 -3.0177410e-002
  5.9607662e-002 -4.0237583e-002
  6.3022425e-002 -4.5988105e-002
  6.4619316e-002 -4.4165743e-002
  6.2564570e-002 -3.7297106e-002
  5.7898044e-002 -3.0452334e-002
  5.4657720e-002 -2.5960799e-002
  5.7195517e-002 -2.1108066e-002
  6.6571906e-002 -1.1117316e-002
  7.8994935e-002  5.0176343e-003
  8.8146631e-002  2.1421413e-002
  9.0017807e-002  2.8507993e-002
  8.6636297e-002  2.0747139e-002
  8.5435960e-002  2.8104278e-003
  9.4178425e-002 -1.1768141e-002
  1.1484834e-001 -9.7383070e-003
  1.4117023e-001  1.1240650e-002
  1.6199042e-001  3.8953033e-002
  1.6836018e-001  5.3978526e-002
  1.5909903e-001  4.3394107e-002
  1.4077433e-001  1.0852931e-002
  1.2206235e-001 -2.5253250e-002
  1.0708585e-001 -4.4916135e-002
  9.3222245e-002 -4.1381889e-002
  7.5229873e-002 -2.6149550e-002
  5.2242661e-002 -1.9513805e-002
  3.1288822e-002 -3.3435081e-002
  2.3358209e-002 -6.0444502e-002
  3.4147027e-002 -7.8344724e-002
  5.6818092e-002 -6.8642020e-002
  7.3836120e-002 -3.4532510e-002
  6.8747022e-002 -2.8527646e-003
  4.0340591e-002 -5.2478031e-003
  8.3745765e-003 -4.9996809e-002
  4.2859496e-003 -1.0551710e-001
  5.0686474e-002 -1.1127061e-001
  1.4231198e-001 -1.3714158e-002
  2.4205882e-001  1.9379062e-001
  2.9746060e-001  4.5422817e-001
  2.6932326e-001  6.6779856e-001
  1.5571441e-001  7.4144453e-001
 -3.8755746e-003  6.3885295e-001
 -1.4758748e-001  4.0100925e-001
 -2.2263851e-001  1.2477136e-001
 -2.1080115e-001 -8.7640521e-002
 -1.3382415e-001 -1.7841392e-001
 -3.7062051e-002 -1.5513424e-001
  3.6988771e-002 -7.4362025e-002
  6.9100073e-002 -1.8654682e-003
  6.6897398e-002  2.4178376e-002
  5.2609879e-002  6.2386883e-003
  4.5576820e-002 -2.6308114e-002
  5.1316393e-002 -4.3837084e-002
  6.2760737e-002 -3.6362742e-002
  6.9884566e-002 -1.5196190e-002
  6.9031816e-002  8.0164112e-004
  6.5063359e-002  1.4725567e-003
  6.5889879e-002 -8.1810728e-003
  7.4922690e-002 -1.4417272e-002
  8.7915134e-002 -7.1361719e-003
  9.6404055e-002  1.2054242e-002
  9.4682553e-002  3.1846716e-002
  8.4497732e-002  4.0651712e-002
  7.3869792e-002  3.5457779e-002
  7.1117385e-002  2.3404564e-002
  7.8901689e-002  1.5658299e-002
  9.2750384e-002  1.8972400e-002
  1.0492446e-001  3.1540940e-002
  1.1032183e-001  4.5657777e-002
  1.0979358e-001  5.4287672e-002
  1.0865854e-001  5.6150350e-002
  1.1187759e-001  5.5559255e-002
  1.2004853e-001  5.7938990e-002
  1.2930868e-001  6.5141797e-002
  1.3504528e-001  7.4432119e-002
  1.3628134e-001  8.1559980e-002
  1.3707085e-001  8.4975039e-002
  1.4364499e-001  8.7449402e-002
  1.5957278e-001  9.3932858e-002
  1.8248324e-001  1.0737616e-001
  2.0521346e-001  1.2620958e-001
  2.2041847e-001  1.4531701e-001
  2.2550871e-001  1.5980361e-001
  2.2433479e-001  1.6842459e-001
  2.2444821e-001  1.7400407e-001
  2.3188447e-001  1.8069797e-001
  2.4709870e-001  1.9039830e-001
  2.6475582e-001  2.0116334e-001
  2.7720724e-001  2.0873966e-001
  2.7909702e-001  2.0981372e-001
  2.7010154e-001  2.0439172e-001
  2.5407940e-001  1.9549724e-001
  2.3579956e-001  1.8658290e-001
  2.1765318e-001  1.7878470e-001
  1.9871509e-001  1.7020163e-001
  1.7642428e-001  1.5758792e-001
  1.4944801e-001  1.3905036e-001
  1.1948469e-001  1.1568027e-001
  9.0721379e-002  9.0959540e-002
  6.7451637e-002  6.8648407e-002
  5.1569585e-002  5.0717842e-002
  4.1666249e-002  3.6807518e-002
  3.4305155e-002  2.5319742e-002
  2.6460955e-002  1.5100839e-002
  1.7391781e-002  6.2722661e-003
  8.7362882e-003 -2.2981100e-004
  2.9068601e-003 -3.8158342e-003
  1.0161261e-003 -5.0162403e-003
  1.8774613e-003 -5.2340888e-003
  2.7099000e-003 -5.7625521e-003
  1.0245137e-003 -6.8750729e-003
 -3.6458141e-003 -7.7664506e-003
 -9.4336796e-003 -7.3316947e-003
 -1.3520150e-002 -5.1955018e-003
 -1.4121476e-002 -2.1529072e-003
 -1.1678285e-002  3.1867291e-004
 -8.4312462e-003  1.0653270e-003
 -6.6146493e-003  1.2728215e-004
 -6.6715570e-003 -1.1412762e-003
 -6.8481231e-003 -7.6929631e-004
 -4.5331060e-003  2.6952213e-003
  1.4868828e-003  9.1818472e-003
  9.5921873e-003  1.6873877e-002
  1.5886313e-002  2.2860801e-002
  1.6541645e-002  2.4472857e-002
  1.0475675e-002  2.0656001e-002
  3.7337946e-004  1.2656655e-002
 -8.6575394e-003  3.6156603e-003
 -1.2100978e-002 -2.9106357e-003
 -8.8366425e-003 -4.8734515e-003
 -1.6958733e-003 -2.8564018e-003
  4.4218174e-003  2.0873994e-004
  5.7268640e-003  8.5104948e-004
  1.8199827e-003 -2.7330662e-003
 -4.2823994e-003 -9.3662547e-003
 -8.3164877e-003 -1.5487200e-002
 -7.4841235e-003 -1.7383464e-002
 -1.9868061e-003 -1.3476063e-002
  5.5067351e-003 -5.5629534e-003
  1.1816395e-002  2.0226637e-003
  1.5126205e-002  4.9251768e-003
  1.5571756e-002  1.2314673e-003
  1.4442850e-002 -7.6065999e-003
  1.2908325e-002 -1.7816633e-002
  1.1315309e-002 -2.5512511e-002
  9.4339897e-003 -2.8673389e-002
  7.2521244e-003 -2.7671030e-002
  5.2350271e-003 -2.4458527e-002
  3.9407718e-003 -2.1087772e-002
  3.2502140e-003 -1.8755358e-002
  2.1942267e-003 -1.7631765e-002
 -3.0325513e-004 -1.7352162e-002
 -4.2053383e-003 -1.7475108e-002
 -7.8569538e-003 -1.7597096e-002
 -8.6807586e-003 -1.7378042e-002
 -4.9229750e-003 -1.6579579e-002
  2.7890186e-003 -1.5117060e-002
  1.1357496e-002 -1.3234418e-002
  1.6785780e-002 -1.1418902e-002
  1.6566814e-002 -1.0043755e-002
  1.1208320e-002 -8.9971844e-003
  3.8852708e-003 -7.7083436e-003
 -1.5981274e-003 -5.6515835e-003
 -3.1590537e-003 -2.9382440e-003
 -1.5406210e-003 -5.3184359e-004
  4.2491968e-004  2.0433927e-004
 -8.8110279e-005 -1.5984018e-003
 -4.0006245e-003 -5.6366267e-003
 -9.7612813e-003 -1.0488720e-002
 -1.4386931e-002 -1.4395160e-002
 -1.5317331e-002 -1.6178758e-002
 -1.1882837e-002 -1.5673431e-002
 -5.6314043e-003 -1.3549774e-002
  4.3205064e-004 -1.0804294e-002
  3.3363885e-003 -8.3735066e-003
  1.4756182e-003 -7.0297880e-003
 -4.6631210e-003 -7.3658472e-003
 -1.2601813e-002 -9.5681780e-003
 -1.8847210e-002 -1.2965587e-002
 -2.0434270e-002 -1.5882835e-002
 -1.6430394e-002 -1.6290968e-002
 -8.7007942e-003 -1.3188249e-002
 -1.2443521e-003 -7.7199791e-003
  1.8441084e-003 -2.9678239e-003
 -1.2907442e-003 -2.2101815e-003
 -9.0258905e-003 -6.6219868e-003
 -1.7082801e-002 -1.4083117e-002
 -2.1094477e-002 -2.0232628e-002
 -1.9392424e-002 -2.1340607e-002
 -1.4068056e-002 -1.6959074e-002
 -9.4752723e-003 -1.0338348e-002
 -9.1454723e-003 -6.1232060e-003
 -1.3274968e-002 -7.0008546e-003
 -1.8607081e-002 -1.1856718e-002
 -2.0855175e-002 -1.6881917e-002
 -1.7855117e-002 -1.8710988e-002
 -1.1227779e-002 -1.7021751e-002
 -5.0913265e-003 -1.4270569e-002
 -2.9444088e-003 -1.2772500e-002
 -5.0099006e-003 -1.1742122e-002
 -8.0583691e-003 -7.2473384e-003
 -7.8367876e-003  4.3146442e-003
 -2.1652639e-003  2.1867290e-002
  7.7387693e-003  3.8509312e-002
  1.8627893e-002  4.5464488e-002
  2.8047872e-002  3.8917775e-002
  3.6241623e-002  2.4473723e-002
  4.5464813e-002  1.4874210e-002
  5.7327764e-002  2.1419407e-002
  7.0400885e-002  4.4762576e-002
  8.0328104e-002  7.2392619e-002
  8.2591928e-002  8.5754193e-002
  7.5709930e-002  7.2844484e-002
  6.2294788e-002  3.7391556e-002
  4.6947378e-002 -2.7058223e-003
  3.2836921e-002 -2.7288563e-002
  1.9833033e-002 -2.7999294e-002
  6.0161390e-003 -1.3882041e-002
 -8.8105583e-003 -3.8013941e-003
 -2.0863424e-002 -1.0944241e-002
 -2.4299352e-002 -3.1499182e-002
 -1.6494458e-002 -4.7141825e-002
 -2.5582435e-003 -4.0563613e-002
  5.7356030e-003 -1.2244668e-002
 -2.4564451e-003  1.5884661e-002
 -2.7324261e-002  1.5683059e-002
 -5.4008988e-002 -2.1947267e-002
 -5.8720157e-002 -7.0469928e-002
 -2.3648835e-002 -7.5295365e-002
  4.8089982e-002  1.4573003e-002
  1.2817558e-001  2.0889536e-001
  1.7443434e-001  4.5780767e-001
  1.5313226e-001  6.6819069e-001
  5.9428923e-002  7.4889268e-001
 -7.6808482e-002  6.5952181e-001
 -2.0439625e-001  4.3369217e-001
 -2.7644179e-001  1.6217232e-001
 -2.7350303e-001 -5.4240938e-002
 -2.1113353e-001 -1.5430136e-001
 -1.2810560e-001 -1.4011033e-001
 -6.3585389e-002 -6.4162803e-002
 -3.7195572e-002  8.5467608e-003
 -4.3091092e-002  3.8001923e-002
 -5.9436681e-002  2.4343278e-002
 -6.5300773e-002 -4.2763531e-003
 -5.3480371e-002 -1.8246316e-002
 -3.1839071e-002 -7.4227227e-003
 -1.4627380e-002  1.6288578e-002
 -1.1159570e-002  3.2833978e-002
 -2.0068980e-002  3.1296734e-002
 -3.2048613e-002  1.7233508e-002
 -3.7711810e-002  6.0667532e-003
 -3.4137242e-002  9.4800940e-003
 -2.5627284e-002  2.6286695e-002
 -1.9017842e-002  4.4455660e-002
 -1.7901263e-002  5.1696047e-002
 -2.0346323e-002  4.5471707e-002
 -2.1398839e-002  3.4532164e-002
 -1.7728356e-002  3.1409288e-002
 -1.0501946e-002  4.2225517e-002
 -4.0912086e-003  6.2084799e-002
 -2.1316318e-003  7.9216124e-002
 -4.0437510e-003  8.4346266e-002
 -5.0556770e-003  7.7651688e-002
  3.8479464e-004  6.8167317e-002
  1.4473877e-002  6.6577502e-002
  3.4274466e-002  7.7225135e-002
  5.3711257e-002  9.5562736e-002
  6.7574660e-002  1.1236932e-001
  7.4728000e-002  1.2105507e-001
  7.8276032e-002  1.2218240e-001
  8.2965479e-002  1.2211412e-001
  9.1946786e-002  1.2744620e-001
  1.0519853e-001  1.3997033e-001
  1.2039151e-001  1.5609098e-001
  1.3517912e-001  1.7060301e-001
  1.4882361e-001  1.8126193e-001
  1.6205976e-001  1.9021262e-001
  1.7561465e-001  2.0133607e-001
  1.8885763e-001  2.1602602e-001
  1.9965755e-001  2.3112546e-001
  2.0561135e-001  2.4090543e-001
  2.0537700e-001  2.4139737e-001
  1.9916735e-001  2.3345304e-001
  1.8803756e-001  2.2202189e-001
  1.7285998e-001  2.1214067e-001
  1.5383192e-001  2.0499234e-001
  1.3111412e-001  1.9725023e-001
  1.0574416e-001  1.8408379e-001
  7.9954062e-002  1.6343062e-001
  5.6356128e-002  1.3802730e-001
  3.6588875e-002  1.1360553e-001
  2.0391317e-002  9.4726010e-002
  6.0470206e-003  8.1712912e-002
 -8.1377502e-003  7.1056687e-002
 -2.2302139e-002  5.8949696e-002
 -3.4805953e-002  4.4896760e-002
 -4.3348945e-002  3.2490710e-002
 -4.6782290e-002  2.6609183e-002
 -4.6090928e-002  2.9304034e-002
 -4.3918696e-002  3.7605076e-002
 -4.2916682e-002  4.5049913e-002
 -4.4185383e-002  4.5880119e-002
 -4.6785910e-002  3.8863537e-002
 -4.8724024e-002  2.7823070e-002
 -4.8452467e-002  1.8792947e-002
 -4.5911397e-002  1.5838278e-002
 -4.2254161e-002  1.8673562e-002
 -3.8775733e-002  2.3446020e-002
 -3.5879618e-002  2.5827807e-002
 -3.2876545e-002  2.3982821e-002
 -2.8719439e-002  1.9430841e-002
 -2.3102670e-002  1.5450358e-002
 -1.7001947e-002  1.4625886e-002
 -1.2302761e-002  1.7306310e-002
 -1.0705132e-002  2.1887735e-002
 -1.2726092e-002  2.6182536e-002
 -1.7334148e-002  2.8734361e-002
 -2.2450427e-002  2.9178823e-002
 -2.5880380e-002  2.7875248e-002
 -2.6249007e-002  2.5414190e-002
 -2.3463889e-002  2.2475355e-002
 -1.8640847e-002  1.9912275e-002
 -1.3561545e-002  1.8553834e-002
 -9.9611247e-003  1.8595702e-002
 -8.8711196e-003  1.9087645e-002
 -1.0269467e-002  1.8203687e-002
 -1.3160899e-002  1.4444254e-002
 -1.6094850e-002  7.9755453e-003
 -1.7954041e-002  9.6340577e-004
 -1.8471907e-002 -3.5918127e-003
 -1.8202592e-002 -3.8447431e-003
 -1.8084091e-002 -5.3159462e-004
 -1.8702643e-002  3.3653530e-003
 -2.0003162e-002  4.7897669e-003
 -2.1456693e-002  2.5788331e-003
 -2.2616500e-002 -1.9782201e-003
 -2.3522837e-002 -6.3570887e-003
 -2.4549779e-002 -8.8863678e-003
 -2.5916667e-002 -9.9306257e-003
 -2.7274253e-002 -1.1244630e-002
 -2.7849283e-002 -1.4000360e-002
 -2.7155267e-002 -1.7238040e-002
 -2.5475964e-002 -1.8441514e-002
 -2.3820648e-002 -1.5613738e-002
 -2.3091220e-002 -9.2408070e-003
 -2.3162140e-002 -2.4397136e-003
 -2.2721447e-002  1.0649923e-003
 -2.0387561e-002 -3.2214258e-004
 -1.6258692e-002 -4.8628910e-003
 -1.2677963e-002 -8.8400304e-003
 -1.3223749e-002 -9.5077218e-003
 -2.0356005e-002 -7.3604716e-003
 -3.3120870e-002 -5.8095596e-003
 -4.6798925e-002 -8.3415155e-003
 -5.5228499e-002 -1.5460694e-002
 -5.4503346e-002 -2.3825014e-002
 -4.5704017e-002 -2.8470868e-002
 -3.4548976e-002 -2.6459451e-002
 -2.7928727e-002 -1.9136709e-002
 -2.9486344e-002 -1.1263907e-002
 -3.7216560e-002 -7.5725627e-003
 -4.4813239e-002 -9.3545382e-003
 -4.5871261e-002 -1.3675250e-002
 -3.8334926e-002 -1.5806429e-002
 -2.5974953e-002 -1.2973675e-002
 -1.6074611e-002 -6.5185563e-003
 -1.4734008e-002 -8.9949617e-004
 -2.2976049e-002 -3.5497915e-004
 -3.6234680e-002 -5.8670396e-003
 -4.7206901e-002 -1.4509273e-002
 -5.0210302e-002 -2.1610402e-002
 -4.4196703e-002 -2.3804148e-002
 -3.2730396e-002 -2.0731587e-002
 -2.1551623e-002 -1.4494407e-002
 -1.5389667e-002 -7.6526878e-003
 -1.6052924e-002 -1.6934694e-003
 -2.2439212e-002  2.9264725e-003
 -3.1725588e-002  5.7575377e-003
 -4.0704530e-002  5.7023412e-003
 -4.6633206e-002  1.6732047e-003
 -4.7701136e-002 -5.9054777e-003
 -4.3497960e-002 -1.4404356e-002
 -3.5513164e-002 -2.0121905e-002
 -2.6987803e-002 -2.0696688e-002
 -2.1788995e-002 -1.6949329e-002
 -2.2526052e-002 -1.2430533e-002
 -2.8964161e-002 -1.0752401e-002
 -3.8031092e-002 -1.2761934e-002
 -4.5596161e-002 -1.5873898e-002
 -4.8938561e-002 -1.6259434e-002
 -4.8159345e-002 -1.2162171e-002
 -4.5596051e-002 -5.6310114e-003
 -4.3735337e-002 -1.0842297e-003
 -4.3334752e-002 -1.7521392e-003
 -4.3264068e-002 -6.9002909e-003
 -4.2116165e-002 -1.2256018e-002
 -4.0050201e-002 -1.3391986e-002
 -3.9070253e-002 -9.2177662e-003
 -4.1249804e-002 -2.5975004e-003
 -4.6309726e-002  2.5125345e-003
 -5.0764073e-002  4.9014497e-003
 -4.9872196e-002  7.3281366e-003
 -4.1161595e-002  1.3745820e-002
 -2.6825518e-002  2.4675190e-002
 -1.2847087e-002  3.5054295e-002
 -4.9816422e-003  3.7324420e-002
 -4.4696769e-003  2.7991535e-002
 -6.8535371e-003  1.2394289e-002
 -5.1357797e-003  2.7524741e-003
  4.8704695e-003  9.7304750e-003
  2.1004766e-002  3.3194319e-002
  3.5820995e-002  5.9723840e-002
  4.1687258e-002  7.0184179e-002
  3.6017415e-002  5.2986139e-002
  2.2573907e-002  1.3458150e-002
  7.8499449e-003 -2.8419610e-002
 -4.4283072e-003 -5.1405414e-002
 -1.5966402e-002 -4.8229875e-002
 -3.1166745e-002 -3.1018837e-002
 -5.1180374e-002 -2.2005687e-002
 -7.0089060e-002 -3.5749453e-002
 -7.7405681e-002 -6.6440132e-002
 -6.6207975e-002 -9.1133741e-002
 -4.0912047e-002 -8.7977187e-002
 -1.7556580e-002 -5.5977164e-002
 -1.4274558e-002 -1.9863847e-002
 -3.7303088e-002 -1.3315314e-002
 -7.2707258e-002 -5.0235801e-002
 -9.1438573e-002 -1.0501724e-001
 -6.7066900e-002 -1.1946133e-001
  4.3818790e-003 -3.6620617e-002
  9.5976374e-002  1.5770097e-001
  1.6041411e-001  4.1364294e-001
  1.5520240e-001  6.3360914e-001
  6.7897484e-002  7.2036085e-001
 -7.4321181e-002  6.2969020e-001
 -2.1730130e-001  3.9599648e-001
 -3.0774416e-001  1.1484780e-001
 -3.1984364e-001 -1.0723296e-001
 -2.6536629e-001 -2.0582671e-001
 -1.8265729e-001 -1.8423688e-001
 -1.1279190e-001 -9.9505636e-002
 -7.8201229e-002 -2.1519956e-002
 -7.5804957e-002  7.3960055e-003
 -8.6268551e-002 -1.1289220e-002
 -9.0597586e-002 -4.5629045e-002
 -8.2274515e-002 -6.2267649e-002
 -6.7892501e-002 -4.9594396e-002
 -5.8375324e-002 -2.0971318e-002
 -5.8899471e-002  3.2484214e-004
 -6.5309060e-002  3.8664045e-004
 -6.8620411e-002 -1.6356201e-002
 -6.3089569e-002 -3.3434357e-002
 -5.0792164e-002 -3.6697279e-002
 -3.9500616e-002 -2.4785341e-002
 -3.5967146e-002 -8.1876537e-003
 -4.0365848e-002  8.4350843e-004
 -4.6289691e-002 -1.4676767e-003
 -4.6037000e-002 -8.1937400e-003
 -3.6837960e-002 -8.5730525e-003
 -2.2992588e-002  2.4984874e-003
 -1.2448509e-002  2.0160600e-002
 -1.0597212e-002  3.3862502e-002
 -1.6227694e-002  3.6211981e-002
 -2.2611326e-002  2.9017349e-002
 -2.2553040e-002  2.1799789e-002
 -1.3411474e-002  2.4177982e-002
  1.5819503e-003  3.8350027e-002
  1.6485244e-002  5.7712374e-002
  2.7310175e-002  7.2375088e-002
  3.4636631e-002  7.7019716e-002
  4.2335315e-002  7.4784971e-002
  5.3877408e-002  7.4319649e-002
  6.9456393e-002  8.2660870e-002
  8.6209484e-002  9.9771960e-002
  1.0108735e-001  1.1887878e-001
  1.1361559e-001  1.3213324e-001
  1.2619901e-001  1.3687064e-001
  1.4160326e-001  1.3753551e-001
  1.5983825e-001  1.4190616e-001
  1.7721601e-001  1.5485502e-001
  1.8846607e-001  1.7457014e-001
  1.9049597e-001  1.9405654e-001
  1.8466858e-001  2.0636294e-001
  1.7573122e-001  2.0922786e-001
  1.6817021e-001  2.0562668e-001
  1.6273472e-001  2.0019262e-001
  1.5573060e-001  1.9472475e-001
  1.4175450e-001  1.8657907e-001
  1.1775086e-001  1.7117143e-001
  8.5517137e-002  1.4639128e-001
  5.0829799e-002  1.1505571e-001
  2.0127049e-002  8.3536779e-002
 -2.8943041e-003  5.7633363e-002
 -1.8310048e-002  3.9082279e-002
 -2.8495494e-002  2.5371920e-002
 -3.5684539e-002  1.2752723e-002
 -4.0572820e-002 -2.0390894e-004
 -4.2839377e-002 -1.1470112e-002
 -4.2695215e-002 -1.7663960e-002
 -4.1762204e-002 -1.7496844e-002
 -4.2342508e-002 -1.3459550e-002
 -4.5677251e-002 -1.0277837e-002
 -5.0801786e-002 -1.1408634e-002
 -5.5138952e-002 -1.6455937e-002
 -5.6468033e-002 -2.1687028e-002
 -5.4565898e-002 -2.3112855e-002
 -5.1259377e-002 -1.9700741e-002
 -4.8825644e-002 -1.4127567e-002
 -4.7984997e-002 -1.0413217e-002
 -4.7380954e-002 -1.0630122e-002
 -4.4998396e-002 -1.3407892e-002
 -4.0297837e-002 -1.5417629e-002
 -3.5286373e-002 -1.4500484e-002
 -3.3255137e-002 -1.1561775e-002
 -3.6167906e-002 -9.6258601e-003
 -4.2745495e-002 -1.0790643e-002
 -4.8835413e-002 -1.3739325e-002
 -5.0191819e-002 -1.4238127e-002
 -4.5548910e-002 -8.4976964e-003
 -3.7748009e-002  3.2158106e-003
 -3.1848466e-002  1.5795674e-002
 -3.1597602e-002  2.2397104e-002
 -3.6951979e-002  1.9457309e-002
 -4.4331595e-002  9.4170223e-003
 -4.9408798e-002 -7.1692145e-004
 -5.0239185e-002 -4.1412294e-003
 -4.8258590e-002  1.0590725e-003
 -4.6618721e-002  1.0739352e-002
 -4.7244481e-002  1.7905926e-002
 -4.9072857e-002  1.7875680e-002
 -4.8885007e-002  1.1401673e-002
 -4.4169313e-002  3.5825748e-003
 -3.5558032e-002 -3.5820873e-004
 -2.6924060e-002  1.0967293e-003
 -2.2812922e-002  4.8601683e-003
 -2.5170928e-002  6.1396135e-003
 -3.1921775e-002  2.5286804e-003
 -3.8375989e-002 -4.0470515e-003
 -4.0623557e-002 -9.0674799e-003
 -3.8285455e-002 -9.2164739e-003
 -3.4544150e-002 -5.0891461e-003
 -3.3537290e-002 -6.2432606e-004
 -3.7198401e-002  9.5341047e-005
 -4.3912156e-002 -3.9897582e-003
 -4.9864495e-002 -1.0286421e-002
 -5.1877539e-002 -1.4884231e-002
 -4.9606184e-002 -1.5830088e-002
 -4.5275671e-002 -1.4436187e-002
 -4.1629692e-002 -1.3717540e-002
 -3.9708231e-002 -1.5328662e-002
 -3.8345684e-002 -1.7814433e-002
 -3.5822482e-002 -1.7870075e-002
 -3.1959227e-002 -1.3522169e-002
 -2.8843270e-002 -6.4849280e-003
 -2.9378149e-002 -1.4370490e-003
 -3.4801876e-002 -2.5720215e-003
 -4.3084472e-002 -1.0032031e-002
 -4.9834686e-002 -1.9344379e-002
 -5.1069001e-002 -2.4558258e-002
 -4.5979741e-002 -2.2818634e-002
 -3.7541854e-002 -1.6665656e-002
 -3.0529641e-002 -1.2112422e-002
 -2.8307648e-002 -1.3812914e-002
 -3.0804594e-002 -2.1151791e-002
 -3.4975982e-002 -2.8374938e-002
 -3.7292808e-002 -2.8948374e-002
 -3.6263059e-002 -2.0798334e-002
 -3.3214629e-002 -8.3658530e-003
 -3.0871024e-002  3.2667366e-004
 -3.1067921e-002 -5.1192351e-004
 -3.3471017e-002 -1.0191258e-002
 -3.6077372e-002 -2.2064616e-002
 -3.7041675e-002 -2.8485619e-002
 -3.6081751e-002 -2.6358713e-002
 -3.4426492e-002 -1.9128739e-002
 -3.3467989e-002 -1.3795917e-002
 -3.3440501e-002 -1.5418183e-002
 -3.3253596e-002 -2.3334577e-002
 -3.1704415e-002 -3.1995617e-002
 -2.8831107e-002 -3.5457261e-002
 -2.6202114e-002 -3.1862311e-002
 -2.5674245e-002 -2.4434684e-002
 -2.7655047e-002 -1.8490373e-002
 -3.0356232e-002 -1.7168224e-002
 -3.0894568e-002 -1.9403967e-002
 -2.7479142e-002 -2.1581855e-002
 -2.1058780e-002 -2.1215170e-002
 -1.5092191e-002 -1.9292778e-002
 -1.3362276e-002 -1.9226144e-002
 -1.7412664e-002 -2.3414537e-002
 -2.5456473e-002 -3.0618536e-002
 -3.3496288e-002 -3.6600155e-002
 -3.7806962e-002 -3.7539948e-002
 -3.6979669e-002 -3.3232097e-002
 -3.2252335e-002 -2.7088561e-002
 -2.6188741e-002 -2.2769874e-002
 -2.0933594e-002 -2.0492850e-002
 -1.7279077e-002 -1.6503291e-002
 -1.4927650e-002 -6.7835197e-003
 -1.3309983e-002  8.0658403e-003
 -1.1859589e-002  2.1388181e-002
 -9.6536657e-003  2.4711711e-002
 -5.0915522e-003  1.4965199e-002
  3.4875367e-003 -1.1979781e-003
  1.6391708e-002 -1.0498386e-002
  3.1420707e-002 -2.5097629e-003
  4.4358557e-002  2.1260616e-002
  5.1253621e-002  4.6165327e-002
  5.0969108e-002  5.3377554e-002
  4.5839113e-002  3.3319875e-002
  3.9466628e-002 -6.3814695e-003
  3.3108734e-002 -4.5159893e-002
  2.3779282e-002 -6.3791167e-002
  6.3098023e-003 -5.8399770e-002
 -2.1385020e-002 -4.3226335e-002
 -5.3867117e-002 -3.9258171e-002
 -7.8757507e-002 -5.6804981e-002
 -8.3693466e-002 -8.5827851e-002
 -6.5598753e-002 -1.0276162e-001
 -3.5467256e-002 -8.9981143e-002
 -1.3652741e-002 -5.3063911e-002
 -1.6806992e-002 -2.0605826e-002
 -4.4597007e-002 -2.3574947e-002
 -7.5965980e-002 -6.7072335e-002
 -7.9749965e-002 -1.1592764e-001
 -3.5000070e-002 -1.0868699e-001
  5.1437677e-002  4.5526370e-003
  1.4246926e-001  2.2307960e-001
  1.8756066e-001  4.8242144e-001
  1.5048553e-001  6.7973499e-001
  3.1837436e-002  7.2595522e-001
 -1.2787928e-001  5.9473449e-001
 -2.6750134e-001  3.3833424e-001
 -3.3613629e-001  6.0388662e-002
 -3.1802388e-001 -1.3830792e-001
 -2.3732009e-001 -2.0883495e-001
 -1.4114538e-001 -1.7026803e-001
 -7.2263043e-002 -8.6869420e-002
 -4.8065535e-002 -2.4210907e-002
 -5.7264252e-002 -1.2948675e-002
 -7.3563598e-002 -4.0575307e-002
 -7.5530085e-002 -7.1400786e-002
 -5.9209537e-002 -7.6867738e-002
 -3.6789717e-002 -5.4491992e-002
 -2.4445334e-002 -2.4578730e-002
 -2.9448483e-002 -1.0859286e-002
 -4.5539022e-002 -2.1516634e-002
 -5.8803476e-002 -4.4543887e-002
 -5.8490795e-002 -5.9046367e-002
 -4.4400927e-002 -5.2183890e-002
 -2.5941477e-002 -2.8429084e-002
 -1.4374255e-002 -4.8071648e-003
 -1.4567502e-002  3.0803461e-003
 -2.2229041e-002 -7.1038585e-003
 -2.7942571e-002 -2.3528953e-002
 -2.4404668e-002 -3.0101937e-002
 -1.1197670e-002 -1.8926358e-002
  5.8964323e-003  4.1848929e-003
  1.9859348e-002  2.4744121e-002
  2.7382689e-002  3.0629102e-002
  3.0214508e-002  2.0575953e-002
  3.2519310e-002  4.1838448e-003
  3.7048741e-002 -5.7303729e-003
  4.3351399e-002 -2.1573625e-003
  4.9314375e-002  1.2453173e-002
  5.4248920e-002  2.9755233e-002
  6.0582511e-002  4.2643073e-002
  7.2365125e-002  5.0105896e-002
  9.1847359e-002  5.6536026e-002
  1.1689871e-001  6.6896538e-002
  1.4174598e-001  8.2268354e-002
  1.6057169e-001  9.9291972e-002
  1.7147206e-001  1.1358066e-001
  1.7776805e-001  1.2374686e-001
  1.8550602e-001  1.3242500e-001
  1.9896442e-001  1.4358059e-001
  2.1736360e-001  1.5853308e-001
  2.3495755e-001  1.7417701e-001
  2.4451547e-001  1.8496459e-001
  2.4148102e-001  1.8693258e-001
  2.2621868e-001  1.8057336e-001
  2.0313227e-001  1.7019823e-001
  1.7766100e-001  1.6042244e-001
  1.5351747e-001  1.5270165e-001
  1.3167742e-001  1.4459368e-001
  1.1133465e-001  1.3216253e-001
  9.1472618e-002  1.1341376e-001
  7.1728365e-002  8.9882855e-002
  5.2335844e-002  6.5438403e-002
  3.3621099e-002  4.3458429e-002
  1.5987501e-002  2.4955900e-002
  3.3808495e-004  9.0008946e-003
 -1.1623968e-002 -5.1903976e-003
 -1.8007477e-002 -1.6707132e-002
 -1.8136626e-002 -2.3528840e-002
 -1.3698424e-002 -2.4793838e-002
 -8.5342585e-003 -2.2638790e-002
 -6.7855837e-003 -2.1563342e-002
 -1.0560704e-002 -2.5537245e-002
 -1.8714315e-002 -3.4921698e-002
 -2.7630767e-002 -4.5792935e-002
 -3.3615066e-002 -5.2535431e-002
 -3.5122544e-002 -5.1865149e-002
 -3.3416441e-002 -4.5317099e-002
 -3.1335131e-002 -3.8213328e-002
 -3.1177608e-002 -3.5799128e-002
 -3.3430901e-002 -3.9570615e-002
 -3.7135535e-002 -4.6292424e-002
 -4.1199534e-002 -5.0761055e-002
 -4.5266571e-002 -4.9771147e-002
 -4.9472016e-002 -4.4247336e-002
 -5.3312440e-002 -3.8089496e-002
 -5.4993037e-002 -3.4801914e-002
 -5.2282162e-002 -3.4840728e-002
 -4.4446700e-002 -3.5660294e-002
 -3.3673048e-002 -3.4331084e-002
 -2.4531924e-002 -3.0331815e-002
 -2.1354970e-002 -2.6097582e-002
 -2.5241059e-002 -2.4919456e-002
 -3.2929648e-002 -2.7990866e-002
 -3.8666638e-002 -3.3142839e-002
 -3.7966540e-002 -3.6460227e-002
 -3.0757501e-002 -3.5514180e-002
 -2.1583454e-002 -3.1578493e-002
 -1.6561002e-002 -2.8857011e-002
 -1.9156681e-002 -3.1242433e-002
 -2.7789959e-002 -3.9210655e-002
 -3.7000594e-002 -4.9291606e-002
 -4.1138833e-002 -5.6513177e-002
 -3.8189888e-002 -5.7982381e-002
 -3.0935476e-002 -5.4741282e-002
 -2.4820589e-002 -5.0618338e-002
 -2.4188614e-002 -4.9121822e-002
 -2.9548166e-002 -5.0929934e-002
 -3.7628480e-002 -5.3930461e-002
 -4.3905111e-002 -5.5361373e-002
 -4.5610748e-002 -5.4452104e-002
 -4.3061462e-002 -5.2850129e-002
 -3.8796974e-002 -5.2687767e-002
 -3.5450063e-002 -5.4254677e-002
 -3.4187780e-002 -5.5496101e-002
 -3.4563901e-002 -5.3882813e-002
 -3.5580332e-002 -4.9155360e-002
 -3.6798679e-002 -4.4311583e-002
 -3.8540503e-002 -4.3586676e-002
 -4.1317314e-002 -4.8851478e-002
 -4.5141625e-002 -5.7383585e-002
 -4.9517997e-002 -6.3302295e-002
 -5.3908069e-002 -6.1867436e-002
 -5.8103035e-002 -5.3465276e-002
 -6.2007838e-002 -4.3949161e-002
 -6.5072145e-002 -4.0694858e-002
 -6.6065861e-002 -4.7071043e-002
 -6.3712862e-002 -5.9582898e-002
 -5.8009766e-002 -7.0146989e-002
 -5.0958371e-002 -7.1946009e-002
 -4.5829359e-002 -6.4482833e-002
 -4.5100646e-002 -5.3954517e-002
 -4.8521155e-002 -4.8565304e-002
 -5.2936994e-002 -5.2360374e-002
 -5.4292412e-002 -6.2262502e-002
 -5.0595933e-002 -7.0629818e-002
 -4.3644671e-002 -7.1295181e-002
 -3.8017701e-002 -6.4342616e-002
 -3.7908923e-002 -5.5864042e-002
 -4.4013162e-002 -5.2945592e-002
 -5.2902648e-002 -5.7955492e-002
 -5.9438564e-002 -6.6691397e-002
 -6.0462756e-002 -7.1838052e-002
 -5.7004622e-002 -6.8915341e-002
 -5.3229126e-002 -5.9879493e-002
 -5.3089952e-002 -5.1511363e-002
 -5.7139965e-002 -4.9894752e-002
 -6.2186004e-002 -5.5499585e-002
 -6.3942257e-002 -6.2934642e-002
 -6.0605377e-002 -6.5542213e-002
 -5.4402891e-002 -6.0982106e-002
 -4.9894967e-002 -5.3206899e-002
 -5.0275870e-002 -4.9104281e-002
 -5.4814678e-002 -5.2643082e-002
 -5.9479501e-002 -6.1365292e-002
 -6.0268746e-002 -6.8204612e-002
 -5.6647187e-002 -6.7291403e-002
 -5.2050181e-002 -5.8758603e-002
 -5.1069393e-002 -4.8492406e-002
 -5.5429128e-002 -4.2879893e-002
 -6.2194378e-002 -4.3100880e-002
 -6.5756374e-002 -4.4011543e-002
 -6.2121392e-002 -3.8931719e-002
 -5.2068716e-002 -2.6473436e-002
 -4.0483443e-002 -1.3273227e-002
 -3.2272548e-002 -9.5241446e-003
 -2.8183050e-002 -2.0184930e-002
 -2.4017382e-002 -3.9055057e-002
 -1.4165899e-002 -5.1454482e-002
  3.2655655e-003 -4.4679799e-002
  2.3925838e-002 -1.8728753e-002
  3.9672733e-002  1.1473661e-002
  4.4182382e-002  2.5163961e-002
  3.7394784e-002  1.0367027e-002
  2.5054777e-002 -2.6768887e-002
  1.3660036e-002 -6.5533624e-002
  4.9201334e-003 -8.5280928e-002
 -5.4244758e-003 -8.0461391e-002
 -2.2945977e-002 -6.4377476e-002
 -4.7759463e-002 -5.8219612e-002
 -7.1570594e-002 -7.3455532e-002
 -8.2246602e-002 -1.0153135e-001
 -7.3226809e-002 -1.1989920e-001
 -5.0626518e-002 -1.1084652e-001
 -3.1339730e-002 -7.8642476e-002
 -3.1593310e-002 -5.0009083e-002
 -5.3312730e-002 -5.4642391e-002
 -7.8609799e-002 -9.8126095e-002
 -7.8562532e-002 -1.4786282e-001
 -3.2598253e-002 -1.4592668e-001
  5.3756459e-002 -4.4474148e-002
  1.4553194e-001  1.5754999e-001
  1.9384046e-001  4.0167469e-001
  1.6263086e-001  5.9284801e-001
  5.0765787e-002  6.4725529e-001
 -1.0441739e-001  5.3743726e-001
 -2.4499174e-001  3.0762493e-001
 -3.2158278e-001  5.0112516e-002
 -3.1671048e-001 -1.4280333e-001
 -2.4953261e-001 -2.2279730e-001
 -1.6086388e-001 -2.0112539e-001
 -8.9127938e-002 -1.3047348e-001
 -5.2090658e-002 -6.8116113e-002
 -4.3925506e-002 -4.4660181e-002
 -4.6277998e-002 -5.5481569e-002
 -4.3905388e-002 -7.5285386e-002
 -3.3813758e-002 -8.1440790e-002
 -2.3421654e-002 -6.9072466e-002
 -2.1349361e-002 -4.9697638e-002
 -2.9043841e-002 -3.8141869e-002
 -3.9410117e-002 -3.9808989e-002
 -4.2672691e-002 -4.7914735e-002
 -3.4121983e-002 -5.1075072e-002
 -1.7574348e-002 -4.3688459e-002
 -2.1216181e-003 -3.0176135e-002
  4.8661450e-003 -2.0347110e-002
  2.9388928e-003 -2.0500619e-002
 -1.8332061e-003 -2.8026844e-002
 -2.0236513e-003 -3.3783272e-002
  5.2901715e-003 -2.9949709e-002
  1.6642537e-002 -1.6643490e-002
  2.5301581e-002 -1.8417798e-003
  2.6889099e-002  5.2534204e-003
  2.2942799e-002  1.8078195e-003
  1.9897046e-002 -6.2113662e-003
  2.4203449e-002 -8.8028061e-003
  3.7591680e-002  8.1740551e-005
  5.5780336e-002  1.7641966e-002
  7.1680353e-002  3.4345986e-002
  8.0515891e-002  4.1298448e-002
  8.3299931e-002  3.7249245e-002
  8.6091723e-002  2.9654952e-002
  9.5793754e-002  2.9183079e-002
  1.1538868e-001  4.1826167e-002
  1.4198912e-001  6.4692086e-002
  1.6876383e-001  8.8389226e-002
  1.8928781e-001  1.0408141e-001
  2.0133138e-001  1.0969500e-001
  2.0758671e-001  1.1075576e-001
  2.1323806e-001  1.1563236e-001
  2.2218069e-001  1.2900454e-001
  2.3440612e-001  1.4847565e-001
  2.4618703e-001  1.6661596e-001
  2.5257491e-001  1.7648611e-001
  2.5038740e-001  1.7615070e-001
  2.3967631e-001  1.6891391e-001
  2.2296762e-001  1.5962448e-001
  2.0316175e-001  1.5037422e-001
  1.8160827e-001  1.3907958e-001
  1.5780135e-001  1.2199882e-001
  1.3076647e-001  9.7890360e-002
  1.0099921e-001  7.0251858e-002
  7.1386727e-002  4.5619696e-002
  4.6354735e-002  2.9222105e-002
  2.9549800e-002  2.1292367e-002
  2.1690345e-002  1.7004818e-002
  1.9946124e-002  1.0109368e-002
  1.9347767e-002 -2.5197863e-003
  1.5454250e-002 -1.8676851e-002
  6.7606255e-003 -3.2531548e-002
 -4.7536274e-003 -3.8848942e-002
 -1.5053951e-002 -3.6569435e-002
 -2.0571836e-002 -2.9204398e-002
 -2.0119245e-002 -2.1977918e-002
 -1.5319508e-002 -1.8267346e-002
 -9.3156989e-003 -1.7842308e-002
 -4.9133747e-003 -1.8075030e-002
 -3.2104586e-003 -1.6728768e-002
 -3.6574544e-003 -1.3823972e-002
 -4.8571847e-003 -1.1463076e-002
 -5.5963721e-003 -1.1632140e-002
 -5.2529076e-003 -1.4033535e-002
 -3.6534934e-003 -1.5991602e-002
 -8.1214974e-004 -1.4573941e-002
  2.9353605e-003 -9.2329686e-003
  6.7769084e-003 -2.6694558e-003
  9.3815237e-003  8.1593189e-004
  9.5308812e-003 -1.5664155e-003
  6.9729790e-003 -8.9567217e-003
  3.0602967e-003 -1.7260875e-002
  1.8595943e-004 -2.2009173e-002
  3.1901857e-004 -2.1504214e-002
  3.5125411e-003 -1.7958395e-002
  7.5365978e-003 -1.5759505e-002
  9.1434895e-003 -1.8229688e-002
  6.2503118e-003 -2.5228733e-002
 -4.2037776e-004 -3.3322127e-002
 -7.5652542e-003 -3.8267934e-002
 -1.1306732e-002 -3.7956073e-002
 -9.7704508e-003 -3.3637004e-002
 -4.4046553e-003 -2.8718762e-002
  1.0050720e-003 -2.6156641e-002
  2.7810760e-003 -2.6590133e-002
 -2.8289959e-004 -2.8477839e-002
 -6.3924676e-003 -2.9931149e-002
 -1.2262237e-002 -3.0552099e-002
 -1.5499499e-002 -3.1771839e-002
 -1.6127949e-002 -3.5413048e-002
 -1.6142008e-002 -4.1715312e-002
 -1.7643387e-002 -4.8596104e-002
 -2.1040286e-002 -5.2854672e-002
 -2.4784453e-002 -5.2496598e-002
 -2.6721808e-002 -4.8368182e-002
 -2.5926575e-002 -4.3741772e-002
 -2.3582806e-002 -4.2079678e-002
 -2.2123860e-002 -4.4604155e-002
 -2.3378703e-002 -4.9382018e-002
 -2.7055799e-002 -5.2973507e-002
 -3.0841672e-002 -5.2930131e-002
 -3.2073855e-002 -4.9525565e-002
 -2.9652581e-002 -4.5439927e-002
 -2.4894693e-002 -4.3732763e-002
 -2.0636294e-002 -4.5662533e-002
 -1.9276931e-002 -4.9936729e-002
 -2.1178348e-002 -5.3848786e-002
 -2.4487400e-002 -5.5235267e-002
 -2.6501542e-002 -5.3784613e-002
 -2.5541848e-002 -5.0860621e-002
 -2.2073099e-002 -4.8237152e-002
 -1.8287739e-002 -4.6894503e-002
 -1.6714570e-002 -4.6781454e-002
 -1.8624123e-002 -4.7498430e-002
 -2.3258302e-002 -4.8877002e-002
 -2.8322081e-002 -5.0870915e-002
 -3.1249083e-002 -5.2882012e-002
 -3.0552644e-002 -5.3421565e-002
 -2.6525038e-002 -5.0843493e-002
 -2.1020364e-002 -4.4836269e-002
 -1.6448555e-002 -3.7411921e-002
 -1.4541497e-002 -3.2266586e-002
 -1.5402951e-002 -3.2448838e-002
 -1.7472162e-002 -3.8007347e-002
 -1.8456835e-002 -4.5525236e-002
 -1.6844768e-002 -5.0238010e-002
 -1.3038263e-002 -4.9401810e-002
 -9.3767668e-003 -4.4312068e-002
 -8.8299823e-003 -3.9308295e-002
 -1.3035259e-002 -3.8311054e-002
 -2.0959124e-002 -4.1492921e-002
 -2.9191580e-002 -4.4953908e-002
 -3.3855803e-002 -4.3865411e-002
 -3.3059170e-002 -3.6732248e-002
 -2.8116695e-002 -2.7170839e-002
 -2.2780398e-002 -2.1441431e-002
 -2.0811733e-002 -2.3261345e-002
 -2.3597627e-002 -3.0126540e-002
 -2.9401132e-002 -3.4481038e-002
 -3.4416033e-002 -2.9283413e-002
 -3.5102971e-002 -1.4111656e-002
 -2.9892970e-002  3.4212585e-003
 -1.9406052e-002  1.2682976e-002
 -5.4550219e-003  8.1934542e-003
  1.0062935e-002 -5.3250501e-003
  2.5444009e-002 -1.5507458e-002
  3.8776025e-002 -1.1399442e-002
  4.7794829e-002  7.5459237e-003
  5.0772799e-002  2.9646261e-002
  4.7854150e-002  3.8494983e-002
  4.1530864e-002  2.4860304e-002
  3.5279185e-002 -5.8538727e-003
  3.0742197e-002 -3.6788066e-002
  2.5761257e-002 -5.1641765e-002
  1.5338825e-002 -4.6778849e-002
 -4.2434531e-003 -3.3842563e-002
 -3.0948156e-002 -3.0391912e-002
 -5.6003015e-002 -4.5293649e-002
 -6.8357354e-002 -7.0496277e-002
 -6.2491814e-002 -8.6565514e-002
 -4.3875842e-002 -7.8819436e-002
 -2.7218803e-002 -5.1764667e-002
 -2.6854956e-002 -2.8994623e-002
 -4.5112909e-002 -3.5925652e-002
 -6.7237861e-002 -7.6158755e-002
 -6.8291438e-002 -1.1935711e-001
 -2.9630959e-002 -1.1277852e-001
  4.5049028e-002 -1.3002173e-002
  1.2551212e-001  1.8090771e-001
  1.6765881e-001  4.1530058e-001
  1.3736813e-001  6.0199922e-001
  3.1720522e-002  6.6153493e-001
 -1.1590704e-001  5.6510401e-001
 -2.5104066e-001  3.5040126e-001
 -3.2536859e-001  1.0196987e-001
 -3.2026416e-001 -9.2148561e-002
 -2.5333532e-001 -1.8207880e-001
 -1.6504222e-001 -1.7311002e-001
 -9.4747229e-002 -1.1151072e-001
 -6.1131901e-002 -5.1473054e-002
 -5.7679892e-002 -2.5045932e-002
 -6.3612432e-002 -3.1736688e-002
 -6.0975142e-002 -4.9777895e-002
 -4.5896345e-002 -5.7276617e-002
 -2.7770368e-002 -4.7486143e-002
 -1.9136797e-002 -2.9533893e-002
 -2.4819674e-002 -1.7296560e-002
 -3.8398829e-002 -1.7102452e-002
 -4.7666803e-002 -2.3652877e-002
 -4.4117917e-002 -2.5966574e-002
 -2.8896853e-002 -1.7199300e-002
 -1.1303063e-002 -1.5643653e-004
 -1.4858262e-003  1.5396318e-002
 -3.2312561e-003  2.0739301e-002
 -1.2016038e-002  1.4802252e-002
 -1.9146128e-002  4.4807110e-003
 -1.8338451e-002 -1.1475412e-003
 -9.7311563e-003  2.4003431e-003
  1.2209521e-003  1.2396496e-002
  8.4990169e-003  2.2056620e-002
  9.9470984e-003  2.6400139e-002
  8.2551925e-003  2.6035353e-002
  8.2099779e-003  2.6108729e-002
  1.3031519e-002  3.1777788e-002
  2.2437520e-002  4.3955560e-002
  3.3751642e-002  5.8694508e-002
  4.4587933e-002  7.0411292e-002
  5.4730312e-002  7.6213367e-002
  6.5831296e-002  7.7943065e-002
  7.9512986e-002  8.0578468e-002
  9.5775637e-002  8.8547299e-002
  1.1303270e-001  1.0275850e-001
  1.2957477e-001  1.2040653e-001
  1.4490211e-001  1.3718950e-001
  1.5968487e-001  1.5008170e-001
  1.7443531e-001  1.5868979e-001
  1.8816926e-001  1.6467204e-001
  1.9839645e-001  1.7009142e-001
  2.0279006e-001  1.7627051e-001
  2.0104927e-001  1.8356736e-001
  1.9544626e-001  1.9171455e-001
  1.8923178e-001  1.9988792e-001
  1.8405861e-001  2.0633314e-001
  1.7830671e-001  2.0818140e-001
  1.6782508e-001  2.0216617e-001
  1.4868997e-001  1.8625745e-001
  1.2023514e-001  1.6120346e-001
  8.6225789e-002  1.3082679e-001
  5.3269615e-002  1.0047173e-001
  2.7562333e-002  7.4472523e-002
  1.1879385e-002  5.4283626e-002
  4.6478292e-003  3.8453257e-002
  1.3080878e-003  2.4273767e-002
 -3.0135359e-003  9.9669353e-003
 -1.1254985e-002 -4.2303280e-003
 -2.3462955e-002 -1.6505667e-002
 -3.7290892e-002 -2.4964338e-002
 -4.9316649e-002 -2.8911186e-002
 -5.6466591e-002 -2.9135434e-002
 -5.7042397e-002 -2.7224276e-002
 -5.1258914e-002 -2.4683117e-002
 -4.1343211e-002 -2.2558416e-002
 -3.0814688e-002 -2.1497816e-002
 -2.3196374e-002 -2.1888411e-002
 -2.0505008e-002 -2.3660833e-002
 -2.2278655e-002 -2.5998892e-002
 -2.5907645e-002 -2.7297685e-002
 -2.8098685e-002 -2.5877529e-002
 -2.6777774e-002 -2.1313462e-002
 -2.2272212e-002 -1.5107106e-002
 -1.6941825e-002 -1.0131404e-002
 -1.3586086e-002 -8.9824722e-003
 -1.3674989e-002 -1.2314389e-002
 -1.6486169e-002 -1.8317381e-002
 -1.9629638e-002 -2.3737669e-002
 -2.0517917e-002 -2.5778269e-002
 -1.7928068e-002 -2.3689110e-002
 -1.2639278e-002 -1.8928047e-002
 -6.9459328e-003 -1.3993414e-002
 -3.4220783e-003 -1.0869867e-002
 -3.6778750e-003 -1.0174774e-002
 -7.6643001e-003 -1.1395085e-002
 -1.3724339e-002 -1.3716615e-002
 -1.9309218e-002 -1.6603134e-002
 -2.2124353e-002 -1.9802465e-002
 -2.1163716e-002 -2.2914502e-002
 -1.7328900e-002 -2.5291527e-002
 -1.3123491e-002 -2.6367736e-002
 -1.1463867e-002 -2.6289253e-002
 -1.4115765e-002 -2.6127047e-002
 -2.0605856e-002 -2.7370681e-002
 -2.8300865e-002 -3.0888747e-002
 -3.3842777e-002 -3.6279959e-002
 -3.5101258e-002 -4.2080078e-002
 -3.2328321e-002 -4.6636978e-002
 -2.7891630e-002 -4.9012768e-002
 -2.4677711e-002 -4.9274761e-002
 -2.4320174e-002 -4.8098414e-002
 -2.6459098e-002 -4.6165361e-002
 -2.9432939e-002 -4.3968292e-002
 -3.1682948e-002 -4.2064185e-002
 -3.2848326e-002 -4.1397138e-002
 -3.3505565e-002 -4.2881472e-002
 -3.4131282e-002 -4.6594489e-002
 -3.4197477e-002 -5.1139147e-002
 -3.2407210e-002 -5.4095921e-002
 -2.7961716e-002 -5.3600868e-002
 -2.1684487e-002 -4.9829311e-002
 -1.6113482e-002 -4.5230997e-002
 -1.3999436e-002 -4.3209507e-002
 -1.6409551e-002 -4.5610301e-002
 -2.1879964e-002 -5.1086795e-002
 -2.7360002e-002 -5.5833090e-002
 -3.0403749e-002 -5.6350788e-002
 -3.0806726e-002 -5.2237976e-002
 -3.0420026e-002 -4.6736899e-002
 -3.1231598e-002 -4.4473926e-002
 -3.3392252e-002 -4.7948328e-002
 -3.4836234e-002 -5.5431596e-002
 -3.2943758e-002 -6.1979447e-002
 -2.7044380e-002 -6.3021700e-002
 -1.9561163e-002 -5.7802429e-002
 -1.4699353e-002 -4.9993544e-002
 -1.5472994e-002 -4.5004361e-002
 -2.1332951e-002 -4.5996461e-002
 -2.8307524e-002 -5.1695930e-002
 -3.1655887e-002 -5.7553575e-002
 -2.9125314e-002 -5.9301911e-002
 -2.2356918e-002 -5.6058591e-002
 -1.5493187e-002 -5.0622269e-002
 -1.2094571e-002 -4.6939265e-002
 -1.2853700e-002 -4.7000328e-002
 -1.5800172e-002 -4.9769571e-002
 -1.8526264e-002 -5.2788851e-002
 -2.0430043e-002 -5.4800399e-002
 -2.2874834e-002 -5.6806508e-002
 -2.7177387e-002 -6.0595825e-002
 -3.2423532e-002 -6.6216039e-002
 -3.5206806e-002 -7.0871805e-002
 -3.2033386e-002 -7.0731831e-002
 -2.2589274e-002 -6.4270733e-002
 -1.1063772e-002 -5.4139339e-002
 -3.9865689e-003 -4.5392653e-002
 -5.7961530e-003 -4.1132410e-002
 -1.5409396e-002 -3.9315813e-002
 -2.6533367e-002 -3.3950975e-002
 -3.1782099e-002 -2.0512024e-002
 -2.7519264e-002 -1.2826972e-003
 -1.5975319e-002  1.4279112e-002
 -2.9957615e-003  1.5731670e-002
  6.6278459e-003  4.1015735e-004
  1.2658214e-002 -2.2286645e-002
  1.8832331e-002 -3.5612248e-002
  2.8884811e-002 -2.7122006e-002
  4.2590311e-002  1.0214571e-003
  5.5136674e-002  3.1401292e-002
  6.0363453e-002  4.2102353e-002
  5.5352858e-002  2.2073151e-002
  4.2406012e-002 -2.0283749e-002
  2.6968095e-002 -6.2168321e-002
  1.3280582e-002 -8.2284943e-002
  1.7343246e-003 -7.5922919e-002
 -9.9204666e-003 -5.7770372e-002
 -2.2527049e-002 -4.9630784e-002
 -3.2982244e-002 -6.2443674e-002
 -3.6077818e-002 -8.6812083e-002
 -2.9948185e-002 -1.0049942e-001
 -2.0253464e-002 -8.8006263e-002
 -1.8177792e-002 -5.6627992e-002
 -3.1898608e-002 -3.4377596e-002
 -5.7148996e-002 -4.8132921e-002
 -7.5054777e-002 -9.6556303e-002
 -6.1655318e-002 -1.3935705e-001
 -4.9174101e-003 -1.1527727e-001
  8.1770493e-002  1.8567442e-002
  1.6043488e-001  2.5049748e-001
  1.8613484e-001  5.0714518e-001
  1.3250105e-001  6.8453123e-001
  9.5852015e-003  7.0180362e-001
 -1.3802930e-001  5.4610341e-001
 -2.5308052e-001  2.8096661e-001
 -2.9506086e-001  1.2820316e-002
 -2.5979779e-001 -1.6436724e-001
 -1.7791716e-001 -2.1336129e-001
 -9.4516388e-002 -1.6260204e-001
 -4.3474234e-002 -7.8425396e-002
 -3.2169361e-002 -2.1487543e-002
 -4.4275281e-002 -1.5248018e-002
 -5.6049764e-002 -4.3220404e-002
 -5.3496026e-002 -7.1085881e-002
 -3.9155347e-002 -7.4719350e-002
 -2.5797339e-002 -5.4535582e-002
 -2.3901249e-002 -2.9318109e-002
 -3.3092714e-002 -1.8032769e-002
 -4.3454566e-002 -2.5059549e-002
 -4.4381571e-002 -3.9271779e-002
 -3.3303240e-002 -4.5435221e-002
 -1.7349175e-002 -3.7306767e-002
 -7.2353129e-003 -2.1856153e-002
 -8.5553761e-003 -1.2234379e-002
 -1.7628349e-002 -1.6228093e-002
 -2.4782393e-002 -2.9945243e-002
 -2.2104483e-002 -4.1399053e-002
 -9.5325179e-003 -4.0509009e-002
  5.5308865e-003 -2.7076703e-002
  1.4292339e-002 -1.0484604e-002
  1.3406826e-002 -1.7258184e-003
  7.3408809e-003 -4.4886508e-003
  4.6133122e-003 -1.2462660e-002
  1.1198867e-002 -1.4689073e-002
  2.6177881e-002 -4.3948078e-003
  4.2882350e-002  1.5787103e-002
  5.4254098e-002  3.6160579e-002
  5.8087596e-002  4.7703856e-002
  5.8303906e-002  4.8932059e-002
  6.1603129e-002  4.6642717e-002
  7.2441097e-002  5.0223395e-002
  9.0142612e-002  6.4266157e-002
  1.1015970e-001  8.5288795e-002
  1.2793966e-001  1.0483467e-001
  1.4216727e-001  1.1620196e-001
  1.5492044e-001  1.1934870e-001
  1.6900140e-001  1.2042766e-001
  1.8496646e-001  1.2656572e-001
  2.0019133e-001  1.4023322e-001
  2.1064725e-001  1.5754590e-001
  2.1374770e-001  1.7150870e-001
  2.0976788e-001  1.7723979e-001
  2.0092483e-001  1.7500798e-001
  1.8895989e-001  1.6879849e-001
  1.7347786e-001  1.6198474e-001
  1.5250056e-001  1.5395065e-001
  1.2476963e-001  1.4043080e-001
  9.1837147e-002  1.1739342e-001
  5.8227054e-002  8.5281436e-002
  2.9360516e-002  5.0164902e-002
  8.7290072e-003  2.0617737e-002
 -3.7683606e-003  2.5189648e-003
 -1.1147375e-002 -4.4016076e-003
 -1.7105066e-002 -5.9269983e-003
 -2.3761743e-002 -9.1704699e-003
 -3.0966782e-002 -1.7937133e-002
 -3.7175829e-002 -3.0737073e-002
 -4.1041577e-002 -4.2613705e-002
 -4.2357625e-002 -4.9026153e-002
 -4.1983257e-002 -4.9036943e-002
 -4.0939614e-002 -4.5534978e-002
 -3.9788344e-002 -4.2636753e-002
 -3.8536761e-002 -4.2831465e-002
 -3.7080476e-002 -4.5645526e-002
 -3.5589180e-002 -4.8515097e-002
 -3.4462402e-002 -4.9086614e-002
 -3.4012059e-002 -4.7016973e-002
 -3.4215828e-002 -4.4045711e-002
 -3.4703581e-002 -4.2446246e-002
 -3.4950656e-002 -4.3193248e-002
 -3.4373231e-002 -4.5213171e-002
 -3.2433390e-002 -4.6327972e-002
 -2.8768027e-002 -4.4947410e-002
 -2.3583633e-002 -4.1325934e-002
 -1.8030913e-002 -3.7441758e-002
 -1.4206656e-002 -3.5597371e-002
 -1.4208595e-002 -3.6728550e-002
 -1.8698881e-002 -3.9628563e-002
 -2.5820510e-002 -4.1706189e-002
 -3.1600844e-002 -4.0778720e-002
 -3.2022680e-002 -3.6761638e-002
 -2.5670276e-002 -3.2023753e-002
 -1.5184443e-002 -3.0096287e-002
 -6.1508956e-003 -3.3435086e-002
 -3.9521684e-003 -4.1680764e-002
 -1.0312070e-002 -5.1527518e-002
 -2.2002723e-002 -5.8471332e-002
 -3.2675255e-002 -5.9464145e-002
 -3.6766036e-002 -5.4736429e-002
 -3.2899937e-002 -4.7670425e-002
 -2.4533415e-002 -4.2695745e-002
 -1.7507827e-002 -4.2622128e-002
 -1.6227687e-002 -4.7081085e-002
 -2.1079616e-002 -5.3086492e-002
 -2.8660030e-002 -5.7265418e-002
 -3.4493876e-002 -5.8236865e-002
 -3.6047808e-002 -5.7455811e-002
 -3.3982776e-002 -5.7971458e-002
 -3.1028678e-002 -6.2111726e-002
 -2.9630839e-002 -6.9717718e-002
 -3.0173367e-002 -7.8104318e-002
 -3.1169956e-002 -8.3748162e-002
 -3.0878916e-002 -8.4381746e-002
 -2.9058224e-002 -8.0236507e-002
 -2.7273275e-002 -7.3644764e-002
 -2.7610447e-002 -6.7523376e-002
 -3.0933597e-002 -6.3937491e-002
 -3.6030589e-002 -6.3372608e-002
 -4.0322988e-002 -6.5228543e-002
 -4.1543647e-002 -6.8364522e-002
 -3.9305006e-002 -7.1432178e-002
 -3.5290131e-002 -7.3050733e-002
 -3.2211176e-002 -7.2139622e-002
 -3.2192777e-002 -6.8614791e-002
 -3.5620640e-002 -6.3866227e-002
 -4.1005854e-002 -6.0420344e-002
 -4.5859601e-002 -6.0516217e-002
 -4.7838945e-002 -6.4380725e-002
 -4.5810517e-002 -6.9644505e-002
 -4.0297516e-002 -7.2628013e-002
 -3.3353462e-002 -7.0953072e-002
 -2.7762857e-002 -6.5585384e-002
 -2.5982345e-002 -6.0625280e-002
 -2.8923879e-002 -6.0536689e-002
 -3.5353935e-002 -6.6677417e-002
 -4.2294588e-002 -7.5758557e-002
 -4.6407258e-002 -8.1705792e-002
 -4.5825539e-002 -7.9844125e-002
 -4.1209782e-002 -7.0456360e-002
 -3.5357797e-002 -5.8923691e-002
 -3.1570448e-002 -5.2161722e-002
 -3.1674271e-002 -5.3830943e-002
 -3.5039675e-002 -6.1805781e-002
 -3.9164133e-002 -6.9832959e-002
 -4.1366711e-002 -7.2171468e-002
 -4.0405381e-002 -6.7680961e-002
 -3.7000197e-002 -6.0376056e-002
 -3.3042904e-002 -5.6098751e-002
 -3.0249270e-002 -5.8045793e-002
 -2.9267672e-002 -6.4671239e-002
 -2.9675211e-002 -7.1309705e-002
 -3.0583436e-002 -7.3897633e-002
 -3.1247685e-002 -7.1653380e-002
 -3.1249607e-002 -6.6540757e-002
 -3.0418978e-002 -6.0500765e-002
 -2.8732606e-002 -5.3291776e-002
 -2.6472447e-002 -4.3295954e-002
 -2.4234445e-002 -3.0655187e-002
 -2.2459574e-002 -1.9488956e-002
 -2.0593157e-002 -1.6270518e-002
 -1.6680285e-002 -2.4739781e-002
 -8.1131010e-003 -4.1285802e-002
  6.4391702e-003 -5.5324032e-002
  2.5227233e-002 -5.5788990e-002
  4.3267764e-002 -3.9756518e-002
  5.4522350e-002 -1.6369338e-002
  5.5367187e-002 -2.0145212e-003
  4.6872031e-002 -9.1542274e-003
  3.3896181e-002 -3.6781888e-002
  2.1375280e-002 -7.0209551e-002
  1.0526422e-002 -9.1273941e-002
 -1.8411889e-003 -9.1962998e-002
 -1.9863419e-002 -8.0824672e-002
 -4.3439041e-002 -7.6429861e-002
 -6.5833439e-002 -9.1989123e-002
 -7.6893789e-002 -1.2297929e-001
 -7.0684389e-002 -1.4861524e-001
 -5.1915398e-002 -1.4779832e-001
 -3.5315760e-002 -1.1811848e-001
 -3.6428067e-002 -8.2151038e-002
 -5.9077926e-002 -7.3100341e-002
 -8.8594005e-002 -1.0732955e-001
 -9.7422810e-002 -1.6326777e-001
 -6.2052757e-002 -1.8497768e-001
  1.8633309e-002 -1.1327363e-001
  1.1601608e-001  7.2689251e-002
  1.8248113e-001  3.3056634e-001
  1.7600990e-001  5.6626539e-001
  8.4811116e-002  6.7895457e-001
 -6.3121910e-002  6.1486771e-001
 -2.1220316e-001  3.9780656e-001
 -3.0683469e-001  1.1749715e-001
 -3.1864791e-001 -1.1761082e-001
 -2.5809936e-001 -2.3497244e-001
 -1.6475108e-001 -2.2852341e-001
 -8.3530537e-002 -1.4991967e-001
 -4.1724162e-002 -6.9893184e-002
 -3.9510739e-002 -3.6085825e-002
 -5.7096215e-002 -5.2521952e-002
 -7.1290084e-002 -8.9318861e-002
 -6.9797789e-002 -1.1095160e-001
 -5.5184322e-002 -1.0167101e-001
 -3.8439061e-002 -7.1983938e-002
 -2.8916062e-002 -4.5552560e-002
 -2.8303217e-002 -3.9307223e-002
 -3.1823653e-002 -5.2097437e-002
 -3.3963998e-002 -6.8662267e-002
 -3.3184966e-002 -7.3520936e-002
 -3.2102759e-002 -6.2990275e-002
 -3.3713881e-002 -4.6413655e-002
 -3.7635727e-002 -3.7101275e-002
 -3.9788092e-002 -4.1215871e-002
 -3.5751843e-002 -5.3457291e-002
 -2.4729065e-002 -6.2195221e-002
 -1.0646416e-002 -5.9125253e-002
  6.1458380e-004 -4.5437902e-002
  5.7102845e-003 -3.0024954e-002
  6.1941476e-003 -2.1880612e-002
  7.0890111e-003 -2.3077236e-002
  1.2751306e-002 -2.7784631e-002
  2.3413123e-002 -2.7598490e-002
  3.5228202e-002 -1.8359959e-002
  4.3709730e-002 -3.0039649e-003
  4.7779424e-002  1.1529299e-002
  5.1044521e-002  2.0296990e-002
  5.9205845e-002  2.4188349e-002
  7.5657572e-002  2.8692838e-002
  9.8550242e-002  3.8834026e-002
  1.2175570e-001  5.4753129e-002
  1.3901549e-001  7.1501297e-002
  1.4827850e-001  8.3186128e-002
  1.5298009e-001  8.7905615e-002
  1.5937430e-001  8.9447225e-002
  1.7189894e-001  9.4309880e-002
  1.8990948e-001  1.0650305e-001
  2.0798200e-001  1.2419634e-001
  2.1943844e-001  1.4078556e-001
  2.2042907e-001  1.4945717e-001
  2.1179725e-001  1.4774839e-001
  1.9768375e-001  1.3868678e-001
  1.8218326e-001  1.2787773e-001
  1.6658055e-001  1.1897146e-001
  1.4909554e-001  1.1104632e-001
  1.2705682e-001  9.9727572e-002
  9.9722140e-002  8.0964075e-002
  6.9609923e-002  5.4457665e-002
  4.1488837e-002  2.4265340e-002
  1.9728546e-002 -3.6444429e-003
  5.9177260e-003 -2.4973017e-002
 -1.7816169e-003 -3.9237138e-002
 -7.0957860e-003 -4.9126920e-002
 -1.3135242e-002 -5.7960075e-002
 -2.0593490e-002 -6.7091172e-002
 -2.7663501e-002 -7.5520686e-002
 -3.1645627e-002 -8.1164840e-002
 -3.1088223e-002 -8.2776440e-002
 -2.7041663e-002 -8.1011879e-002
 -2.2594314e-002 -7.8063571e-002
 -2.1001946e-002 -7.6188655e-002
 -2.3629748e-002 -7.6380317e-002
 -2.9029494e-002 -7.7935315e-002
 -3.3869096e-002 -7.9106988e-002
 -3.5071313e-002 -7.8268135e-002
 -3.1832146e-002 -7.4860762e-002
 -2.6048689e-002 -6.9648852e-002
 -2.0965373e-002 -6.4339430e-002
 -1.8842038e-002 -6.0680012e-002
 -1.9345002e-002 -5.9588832e-002
 -1.9909809e-002 -6.0656712e-002
 -1.7833182e-002 -6.2390654e-002
 -1.2620340e-002 -6.3079892e-002
 -6.7339329e-003 -6.1858411e-002
 -4.0138592e-003 -5.9263585e-002
 -6.7694377e-003 -5.6849488e-002
 -1.3688054e-002 -5.5992966e-002
 -2.0215681e-002 -5.6710733e-002
 -2.1409204e-002 -5.7410694e-002
 -1.5477538e-002 -5.6112815e-002
 -5.3350566e-003 -5.2185748e-002
  2.9681550e-003 -4.7329346e-002
  4.0685517e-003 -4.4908441e-002
 -3.2478444e-003 -4.7780596e-002
 -1.5282944e-002 -5.6050109e-002
 -2.5785441e-002 -6.6479817e-002
 -2.9828193e-002 -7.4251953e-002
 -2.6518361e-002 -7.5984946e-002
 -1.8921299e-002 -7.1982905e-002
 -1.1632500e-002 -6.6063411e-002
 -7.9760620e-003 -6.3037729e-002
 -8.7732626e-003 -6.5597849e-002
 -1.3027137e-002 -7.2682429e-002
 -1.9451390e-002 -8.0422622e-002
 -2.7189908e-002 -8.4820235e-002
 -3.5376530e-002 -8.4269389e-002
 -4.2289516e-002 -8.0160486e-002
 -4.5502160e-002 -7.5490843e-002
 -4.3450199e-002 -7.2767715e-002
 -3.7290833e-002 -7.2860222e-002
 -3.1143234e-002 -7.5290487e-002
 -2.9882300e-002 -7.9237838e-002
 -3.5762079e-002 -8.4232279e-002
 -4.6356563e-002 -8.9848430e-002
 -5.5698898e-002 -9.4973824e-002
 -5.8272701e-002 -9.7752746e-002
 -5.3123615e-002 -9.6605920e-002
 -4.4752624e-002 -9.1930298e-002
 -4.0088674e-002 -8.6493977e-002
 -4.3368067e-002 -8.3940049e-002
 -5.2860092e-002 -8.6298581e-002
 -6.2064394e-002 -9.2304052e-002
 -6.4613775e-002 -9.8043841e-002
 -5.9079122e-002 -9.9606650e-002
 -5.0189138e-002 -9.6018511e-002
 -4.5226848e-002 -9.0062328e-002
 -4.8473732e-002 -8.6337242e-002
 -5.7803547e-002 -8.7844191e-002
 -6.6298404e-002 -9.3824228e-002
 -6.7570710e-002 -1.0046825e-001
 -6.0723701e-002 -1.0392917e-001
 -5.1096985e-002 -1.0326006e-001
 -4.6136724e-002 -1.0095623e-001
 -4.9672027e-002 -1.0075562e-001
 -5.9038400e-002 -1.0447698e-001
 -6.7218525e-002 -1.1048754e-001
 -6.8311470e-002 -1.1498675e-001
 -6.2019016e-002 -1.1505999e-001
 -5.3594832e-002 -1.1089736e-001
 -4.9444430e-002 -1.0548492e-001
 -5.2084046e-002 -1.0221295e-001
 -5.8386260e-002 -1.0242598e-001
 -6.2579378e-002 -1.0496367e-001
 -6.1154603e-002 -1.0763788e-001
 -5.5650196e-002 -1.0906643e-001
 -5.1027242e-002 -1.0905708e-001
 -5.0975485e-002 -1.0727906e-001
 -5.4365322e-002 -1.0204851e-001
 -5.5973202e-002 -9.1142105e-002
 -5.1064767e-002 -7.4664089e-002
 -3.9951415e-002 -5.7433176e-002
 -2.8314439e-002 -4.7840195e-002
 -2.2735194e-002 -5.2606309e-002
 -2.4881093e-002 -7.0665719e-002
 -2.9283404e-002 -9.1283719e-002
 -2.7054714e-002 -9.9326613e-002
 -1.3096776e-002 -8.5371860e-002
  8.9085164e-003 -5.3826475e-002
  2.8041932e-002 -2.2350707e-002
  3.3477678e-002 -1.1561664e-002
  2.2184170e-002 -3.1304467e-002
  9.1121316e-004 -7.3209253e-002
 -1.9194272e-002 -1.1556062e-001
 -3.1083402e-002 -1.3774078e-001
 -3.6633325e-002 -1.3418419e-001
 -4.3834077e-002 -1.1748294e-001
 -5.8590760e-002 -1.0793746e-001
 -7.8169385e-002 -1.1725874e-001
 -9.2354484e-002 -1.3911028e-001
 -9.1962113e-002 -1.5450842e-001
 -7.7837507e-002 -1.4841934e-001
 -6.2160118e-002 -1.2451802e-001
 -5.9308073e-002 -1.0492735e-001
 -7.2518303e-002 -1.1264102e-001
 -8.7089059e-002 -1.4827692e-001
 -7.7626956e-002 -1.7957248e-001
 -2.6578319e-002 -1.5516786e-001
  5.8242880e-002 -3.7439668e-002
  1.4068564e-001  1.6586800e-001
  1.7281036e-001  3.9372678e-001
  1.2251428e-001  5.5666066e-001
 -4.9235564e-003  5.8221216e-001
 -1.6587490e-001  4.5460390e-001
 -2.9979421e-001  2.2448055e-001
 -3.6052612e-001 -1.7537039e-002
 -3.3860645e-001 -1.8754299e-001
 -2.6180314e-001 -2.4771147e-001
 -1.7517699e-001 -2.1673305e-001
 -1.1459723e-001 -1.4863965e-001
 -9.0305812e-002 -9.6537850e-002
 -8.8795979e-002 -8.4589376e-002
 -8.8626581e-002 -1.0322458e-001
 -7.7251521e-002 -1.2567819e-001
 -5.7674031e-002 -1.3097688e-001
 -4.2206384e-002 -1.1702626e-001
 -4.0346140e-002 -9.7229488e-002
 -5.0933289e-002 -8.6719336e-002
 -6.3783011e-002 -9.0201375e-002
 -6.8303563e-002 -1.0017114e-001
 -6.1436978e-002 -1.0492204e-001
 -4.8842347e-002 -9.8595381e-002
 -3.9201270e-002 -8.5070234e-002
 -3.7040919e-002 -7.3575775e-002
 -3.9955524e-002 -7.0586241e-002
 -4.1989085e-002 -7.4983142e-002
 -3.9547273e-002 -7.9950063e-002
 -3.4467761e-002 -7.9187914e-002
 -3.1587237e-002 -7.1826554e-002
 -3.3359087e-002 -6.2217341e-002
 -3.6447063e-002 -5.5323111e-002
 -3.3841483e-002 -5.2177705e-002
 -2.0799405e-002 -4.9340469e-002
  2.1303518e-004 -4.2634487e-002
  2.0196587e-002 -3.1510113e-002
  2.9906511e-002 -2.0038985e-002
  2.7122646e-002 -1.3457965e-002
  1.9104485e-002 -1.3290910e-002
  1.7886678e-002 -1.5360430e-002
  3.1829654e-002 -1.2520992e-002
  5.9594168e-002 -1.3348995e-004
  9.1108185e-002  2.0173836e-002
  1.1488292e-001  4.1568731e-002
  1.2615315e-001  5.7101054e-002
  1.2987710e-001  6.4785348e-002
  1.3646829e-001  6.8608794e-002
  1.5367509e-001  7.4801651e-002
  1.8072576e-001  8.6510572e-002
  2.0890997e-001  1.0125731e-001
  2.2775450e-001  1.1311303e-001
  2.3189549e-001  1.1768167e-001
  2.2359023e-001  1.1564365e-001
  2.0953453e-001  1.1194342e-001
  1.9484755e-001  1.1117641e-001
  1.7938451e-001  1.1320014e-001
  1.5891170e-001  1.1260056e-001
  1.2994198e-001  1.0275994e-001
  9.3930359e-002  8.1242222e-002
  5.7371167e-002  5.2269061e-002
  2.7711854e-002  2.4143448e-002
  8.4625823e-003  3.5720338e-003
 -2.6849783e-003 -8.7121777e-003
 -1.1448851e-002 -1.7817440e-002
 -2.2238017e-002 -3.0096206e-002
 -3.5002277e-002 -4.7885592e-002
 -4.6043961e-002 -6.7635073e-002
 -5.1904977e-002 -8.2833242e-002
 -5.2847737e-002 -8.9195280e-002
 -5.3150381e-002 -8.8047594e-002
 -5.7719459e-002 -8.5248463e-002
 -6.7991844e-002 -8.6690439e-002
 -8.0278909e-002 -9.3871050e-002
 -8.8101857e-002 -1.0303348e-001
 -8.6782976e-002 -1.0837008e-001
 -7.6912318e-002 -1.0660404e-001
 -6.4019722e-002 -9.9361630e-002
 -5.4945742e-002 -9.1437296e-002
 -5.3436263e-002 -8.6924559e-002
 -5.8207521e-002 -8.6274496e-002
 -6.4509624e-002 -8.6456614e-002
 -6.7591606e-002 -8.3975841e-002
 -6.5648334e-002 -7.8191417e-002
 -6.0077965e-002 -7.2035116e-002
 -5.3592797e-002 -6.9643305e-002
 -4.7970787e-002 -7.2824454e-002
 -4.3366322e-002 -7.9361007e-002
 -3.9370023e-002 -8.4560152e-002
 -3.6482412e-002 -8.4845049e-002
 -3.6306590e-002 -8.0554594e-002
 -4.0129531e-002 -7.5776935e-002
 -4.7118202e-002 -7.5323760e-002
 -5.3911153e-002 -8.1120115e-002
 -5.6344925e-002 -9.0706778e-002
 -5.2392267e-002 -9.8929116e-002
 -4.4105194e-002 -1.0152464e-001
 -3.6842569e-002 -9.7892774e-002
 -3.6051408e-002 -9.1253193e-002
 -4.3605834e-002 -8.6257302e-002
 -5.6316665e-002 -8.5916253e-002
 -6.7660526e-002 -9.0015889e-002
 -7.1746290e-002 -9.5796599e-002
 -6.6937839e-002 -1.0016516e-001
 -5.6844929e-002 -1.0170733e-001
 -4.8015237e-002 -1.0124507e-001
 -4.5895631e-002 -1.0078895e-001
 -5.1583809e-002 -1.0196561e-001
 -6.1348187e-002 -1.0499231e-001
 -6.9088500e-002 -1.0873386e-001
 -7.0039560e-002 -1.1153301e-001
 -6.3574250e-002 -1.1226183e-001
 -5.3365694e-002 -1.1090768e-001
 -4.5076808e-002 -1.0863807e-001
 -4.2981627e-002 -1.0721374e-001
 -4.7496086e-002 -1.0811950e-001
 -5.5095313e-002 -1.1172272e-001
 -6.0488123e-002 -1.1688456e-001
 -5.9685927e-002 -1.2136295e-001
 -5.2174753e-002 -1.2299598e-001
 -4.0983568e-002 -1.2109841e-001
 -3.0726486e-002 -1.1705556e-001
 -2.4980279e-002 -1.1365305e-001
 -2.4603118e-002 -1.1328825e-001
 -2.7924443e-002 -1.1629932e-001
 -3.2494255e-002 -1.2053982e-001
 -3.6792383e-002 -1.2281619e-001
 -4.0683610e-002 -1.2123316e-001
 -4.4373370e-002 -1.1646474e-001
 -4.6917220e-002 -1.1120978e-001
 -4.5916009e-002 -1.0811995e-001
 -3.9005609e-002 -1.0785555e-001
 -2.6176973e-002 -1.0883057e-001
 -1.1096610e-002 -1.0886487e-001
  1.7352845e-004 -1.0732702e-001
  2.6187918e-003 -1.0586306e-001
 -4.2578466e-003 -1.0698684e-001
 -1.5596250e-002 -1.1158505e-001
 -2.3871837e-002 -1.1752593e-001
 -2.3710561e-002 -1.2085198e-001
 -1.5511542e-002 -1.1884194e-001
 -5.1844041e-003 -1.1249909e-001
 -1.9667746e-005 -1.0627031e-001
 -3.4999907e-003 -1.0486698e-001
 -1.2705345e-002 -1.0948717e-001
 -2.0435086e-002 -1.1660596e-001
 -2.0430739e-002 -1.2033599e-001
 -1.2027017e-002 -1.1684222e-001
 -7.5840477e-004 -1.0726697e-001
  5.5509418e-003 -9.6722243e-002
  2.4855318e-003 -9.0049746e-002
 -7.7146254e-003 -8.7855330e-002
 -1.7629018e-002 -8.6177200e-002
 -1.9813152e-002 -8.0301060e-002
 -1.1826758e-002 -6.9556527e-002
  2.4609613e-003 -5.8872568e-002
  1.5982378e-002 -5.5236578e-002
  2.3593408e-002 -6.1520321e-002
  2.5305417e-002 -7.2860782e-002
  2.5608723e-002 -7.9206023e-002
  2.9595981e-002 -7.2868472e-002
  3.9195564e-002 -5.5365791e-002
  5.1995990e-002 -3.7898769e-002
  6.3214253e-002 -3.4027023e-002
  6.8665984e-002 -4.9689433e-002
  6.6331482e-002 -7.8218359e-002
  5.5939039e-002 -1.0469333e-001
  3.7775343e-002 -1.1694731e-001
  1.2726585e-002 -1.1474506e-001
 -1.6156793e-002 -1.0959597e-001
 -4.2398179e-002 -1.1463569e-001
 -5.7709080e-002 -1.3247963e-001
 -5.6743569e-002 -1.5133229e-001
 -4.2097624e-002 -1.5393427e-001
 -2.5024871e-002 -1.3333465e-001
 -1.9465693e-002 -1.0266602e-001
 -3.1928064e-002 -8.8767259e-002
 -5.4019937e-002 -1.1109797e-001
 -6.4221930e-002 -1.6004571e-001
 -4.0114848e-002 -1.9230951e-001
  2.5157995e-002 -1.5150216e-001
  1.1298404e-001 -4.6636985e-003
  1.8398045e-001  2.2785937e-001
  1.9679068e-001  4.7079974e-001
  1.3114819e-001  6.2610377e-001
  1.5866714e-003  6.2289413e-001
 -1.4714148e-001  4.5638976e-001
 -2.6114350e-001  1.9227903e-001
 -3.0332082e-001 -6.6720191e-002
 -2.6963751e-001 -2.3265177e-001
 -1.8738299e-001 -2.7259727e-001
 -9.7841188e-002 -2.1584109e-001
 -3.4492470e-002 -1.2727791e-001
 -9.2079464e-003 -6.6368395e-002
 -1.2608591e-002 -5.7180146e-002
 -2.5455845e-002 -8.4961013e-002
 -3.2304142e-002 -1.1629889e-001
 -2.8725466e-002 -1.2567776e-001
 -1.9488360e-002 -1.1034244e-001
 -1.1398090e-002 -8.6257788e-002
 -7.1575000e-003 -7.1964959e-002
 -4.4325218e-003 -7.4079620e-002
  4.8525613e-004 -8.4627634e-002
  8.4026575e-003 -9.0081165e-002
  1.6162186e-002 -8.3227525e-002
  1.9383147e-002 -6.8312886e-002
  1.6488953e-002 -5.6191039e-002
  1.0401596e-002 -5.4634854e-002
  6.5442262e-003 -6.1999309e-002
  8.6833923e-003 -6.9179449e-002
  1.6153033e-002 -6.7493721e-002
  2.4386580e-002 -5.5826546e-002
  2.8552778e-002 -4.1196329e-002
  2.7383813e-002 -3.2595301e-002
  2.4320432e-002 -3.3452390e-002
  2.5163334e-002 -3.8831391e-002
  3.4087869e-002 -3.9472278e-002
  5.0775963e-002 -2.9248577e-002
  7.0674688e-002 -9.9080133e-003
  8.7973016e-002  1.0495035e-002
  9.9167548e-002  2.4088072e-002
  1.0482232e-001  2.9256990e-002
  1.0877907e-001  3.1580598e-002
  1.1564645e-001  3.9037861e-002
  1.2841800e-001  5.5471698e-002
  1.4751724e-001  7.7584059e-002
  1.7127785e-001  9.7642808e-002
  1.9698986e-001  1.0961702e-001
  2.2169368e-001  1.1375388e-001
  2.4248921e-001  1.1600732e-001
  2.5688811e-001  1.2300049e-001
  2.6344824e-001  1.3655321e-001
  2.6251854e-001  1.5215739e-001
  2.5637466e-001  1.6249463e-001
  2.4819186e-001  1.6304629e-001
  2.4015202e-001  1.5530466e-001
  2.3194371e-001  1.4510382e-001
  2.2074068e-001  1.3751958e-001
  2.0311592e-001  1.3259921e-001
  1.7775106e-001  1.2527165e-001
  1.4721544e-001  1.0965993e-001
  1.1740228e-001  8.4284624e-002
  9.4765842e-002  5.4041224e-002
  8.2777457e-002  2.7250825e-002
  7.9956819e-002  1.0000852e-002
  8.0705702e-002  2.0600845e-003
  7.8463852e-002 -2.5075909e-003
  6.9417086e-002 -1.0551121e-002
  5.4410603e-002 -2.4567986e-002
  3.8059448e-002 -4.0873965e-002
  2.5801876e-002 -5.2494362e-002
  2.0646579e-002 -5.4537022e-002
  2.1749114e-002 -4.7926600e-002
  2.5353422e-002 -3.8810063e-002
  2.7419382e-002 -3.4216658e-002
  2.6023328e-002 -3.7301603e-002
  2.2082943e-002 -4.5649266e-002
  1.8187927e-002 -5.3571051e-002
  1.6614258e-002 -5.6380491e-002
  1.7775604e-002 -5.3454090e-002
  2.0342573e-002 -4.8009024e-002
  2.2459055e-002 -4.3987318e-002
  2.3169112e-002 -4.3129012e-002
  2.2998558e-002 -4.4243144e-002
  2.3114079e-002 -4.4933795e-002
  2.4092019e-002 -4.4031387e-002
  2.5155845e-002 -4.2554480e-002
  2.4635783e-002 -4.2485203e-002
  2.1256898e-002 -4.4635340e-002
  1.5417488e-002 -4.7536771e-002
  9.3301776e-003 -4.8534024e-002
  5.8302479e-003 -4.6181577e-002
  6.5538551e-003 -4.1875771e-002
  1.0781222e-002 -3.9134476e-002
  1.5701781e-002 -4.0928935e-002
  1.8040754e-002 -4.7166228e-002
  1.5927940e-002 -5.4455539e-002
  9.8962484e-003 -5.8514106e-002
