 -8.7584811e-002 -6.9934744e-002
 -8.5039722e-002 -6.4783114e-002
 -8.1665989e-002 -6.1572484e-002
 -7.8157698e-002 -6.1062434e-002
 -7.4876942e-002 -6.1697241e-002
 -7.2091888e-002 -6.1376532e-002
 -6.9921157e-002 -5.9049530e-002
 -6.8226531e-002 -5.5151567e-002
 -6.6741597e-002 -5.0890919e-002
 -6.5401910e-002 -4.7281006e-002
 -6.4598935e-002 -4.4699953e-002
 -6.5054506e-002 -4.3168080e-002
 -6.7234525e-002 -4.2779777e-002
 -7.0769936e-002 -4.3782940e-002
 -7.4487500e-002 -4.6238504e-002
 -7.7146338e-002 -4.9640453e-002
 -7.8306432e-002 -5.2874409e-002
 -7.8567940e-002 -5.4650184e-002
 -7.8958177e-002 -5.4145289e-002
 -7.9883076e-002 -5.1450918e-002
 -8.0602477e-002 -4.7615366e-002
 -7.9823997e-002 -4.4299364e-002
 -7.7051897e-002 -4.3178496e-002
 -7.3523869e-002 -4.5220530e-002
 -7.1792962e-002 -5.0135292e-002
 -7.4044993e-002 -5.6219431e-002
 -8.0332921e-002 -6.0944528e-002
 -8.8208965e-002 -6.2272535e-002
 -9.4232048e-002 -5.9980581e-002
 -9.6210383e-002 -5.6065286e-002
 -9.4642847e-002 -5.3706256e-002
 -9.2191503e-002 -5.5192595e-002
 -9.1609351e-002 -6.0196086e-002
 -9.3728017e-002 -6.5788055e-002
 -9.7084054e-002 -6.8403279e-002
 -9.9339111e-002 -6.6467399e-002
 -9.9225027e-002 -6.1665690e-002
 -9.7294903e-002 -5.7574443e-002
 -9.5015960e-002 -5.6685313e-002
 -9.3178387e-002 -5.8124536e-002
 -9.1204304e-002 -5.8143230e-002
 -8.8077676e-002 -5.3340000e-002
 -8.4012389e-002 -4.4115726e-002
 -8.1120847e-002 -3.5343103e-002
 -8.2022015e-002 -3.3164484e-002
 -8.7325626e-002 -4.0066756e-002
 -9.4269186e-002 -5.2169112e-002
 -9.8167412e-002 -6.1378749e-002
 -9.5971866e-002 -6.1277332e-002
 -8.9190159e-002 -5.2377404e-002
 -8.3504521e-002 -4.2412095e-002
 -8.4645883e-002 -4.0755275e-002
 -9.3548765e-002 -5.0984020e-002
 -1.0456491e-001 -6.7323375e-002
 -1.0897934e-001 -7.8250592e-002
 -1.0142458e-001 -7.4930374e-002
 -8.4388792e-002 -5.8048111e-002
 -6.6915419e-002 -3.7431944e-002
 -5.7893351e-002 -2.4314290e-002
 -5.8892214e-002 -2.2197731e-002
 -6.2387682e-002 -2.3824157e-002
 -5.7329908e-002 -1.7327306e-002
 -3.8341469e-002  2.8137104e-003
 -1.1290250e-002  2.8862569e-002
  9.5920245e-003  4.3392738e-002
  1.1528063e-002  3.1576959e-002
 -7.2388581e-003 -6.7762892e-003
 -3.5748915e-002 -5.5223824e-002
 -5.8324173e-002 -9.1315058e-002
 -6.6249946e-002 -1.0231200e-001
 -6.4042288e-002 -9.3986527e-002
 -6.4735881e-002 -8.5047357e-002
 -7.7744009e-002 -9.1112621e-002
 -9.9243708e-002 -1.1103176e-001
 -1.1394826e-001 -1.2749976e-001
 -1.0829751e-001 -1.2283873e-001
 -8.4719279e-002 -9.7470623e-002
 -6.4044618e-002 -7.4385997e-002
 -7.0865651e-002 -8.2105601e-002
 -1.0992351e-001 -1.2559170e-001
 -1.5168288e-001 -1.6743085e-001
 -1.4139254e-001 -1.3844354e-001
 -3.1019769e-002  2.2218900e-002
  1.8376107e-001  3.1961634e-001
  4.4665578e-001  6.8022838e-001
  6.5915357e-001  9.7422837e-001
  7.2769259e-001  1.0758907e+000
  6.1359386e-001  9.2948396e-001
  3.5613804e-001  5.8184526e-001
  5.3988746e-002  1.6127020e-001
 -1.8461690e-001 -1.8596658e-001
 -2.9417035e-001 -3.6509096e-001
 -2.7713104e-001 -3.6956783e-001
 -1.9047933e-001 -2.6787883e-001
 -1.0559322e-001 -1.5363237e-001
 -6.7824319e-002 -9.2178822e-002
 -7.9142329e-002 -9.4479793e-002
 -1.0979155e-001 -1.2809912e-001
 -1.2623811e-001 -1.5096265e-001
 -1.1453374e-001 -1.4202479e-001
 -8.5096199e-002 -1.1000904e-001
 -5.9601986e-002 -7.9394111e-002
 -5.2620611e-002 -6.8444082e-002
 -6.2075743e-002 -7.6571176e-002
 -7.3732422e-002 -8.8511687e-002
 -7.4048311e-002 -8.9017129e-002
 -6.0294146e-002 -7.4975017e-002
 -4.0850627e-002 -5.5938678e-002
 -2.6788328e-002 -4.4302697e-002
 -2.2587488e-002 -4.4321605e-002
 -2.3350859e-002 -4.9004255e-002
 -1.9944360e-002 -4.6697426e-002
 -6.9609489e-003 -3.1032875e-002
  1.3134697e-002 -5.9799083e-003
  3.2844489e-002  1.7877330e-002
  4.6347836e-002  3.2153903e-002
  5.4509441e-002  3.7262904e-002
  6.4025790e-002  4.1658723e-002
  8.1766862e-002  5.4804321e-002
  1.0917411e-001  7.9938518e-002
  1.4115302e-001  1.1223656e-001
  1.7010303e-001  1.4340696e-001
  1.9165240e-001  1.6843294e-001
  2.0735027e-001  1.8889564e-001
  2.2256859e-001  2.1051397e-001
  2.4146412e-001  2.3743759e-001
  2.6333697e-001  2.6827448e-001
  2.8302855e-001  2.9700634e-001
  2.9470680e-001  3.1765311e-001
  2.9583806e-001  3.2852286e-001
  2.8817577e-001  3.3235496e-001
  2.7536710e-001  3.3248273e-001
  2.5949939e-001  3.2850835e-001
  2.3959311e-001  3.1543743e-001
  2.1308864e-001  2.8725055e-001
  1.7891344e-001  2.4215797e-001
  1.3925921e-001  1.8524593e-001
  9.8801672e-002  1.2636852e-001
  6.2042184e-002  7.4793932e-002
  3.1080516e-002  3.4601180e-002
  5.5782826e-003  4.0420300e-003
 -1.5467058e-002 -2.1180486e-002
 -3.2031171e-002 -4.3714438e-002
 -4.3053574e-002 -6.2790926e-002
 -4.8221157e-002 -7.6030968e-002
 -4.9460313e-002 -8.2658278e-002
 -5.0591312e-002 -8.5147291e-002
 -5.4973417e-002 -8.7772746e-002
 -6.2832317e-002 -9.3303947e-002
 -7.0775393e-002 -1.0080383e-001
 -7.4028908e-002 -1.0648676e-001
 -7.0129111e-002 -1.0697953e-001
 -6.0961727e-002 -1.0230140e-001
 -5.1758362e-002 -9.6098156e-002
 -4.7466495e-002 -9.2941531e-002
 -4.9534591e-002 -9.4924885e-002
 -5.5260831e-002 -1.0026742e-001
 -6.0205268e-002 -1.0490669e-001
 -6.1693805e-002 -1.0572745e-001
 -6.0514987e-002 -1.0264990e-001
 -5.9758980e-002 -9.8161425e-002
 -6.1842851e-002 -9.4825316e-002
 -6.6421754e-002 -9.3205949e-002
 -7.0710320e-002 -9.1824497e-002
 -7.2029055e-002 -8.9129392e-002
 -7.0180867e-002 -8.5493873e-002
 -6.7673406e-002 -8.3354679e-002
 -6.7621847e-002 -8.5274296e-002
 -7.1158512e-002 -9.1560008e-002
 -7.6482647e-002 -9.9578952e-002
 -8.0356612e-002 -1.0538059e-001
 -8.0778022e-002 -1.0635928e-001
 -7.8490475e-002 -1.0291036e-001
 -7.6179893e-002 -9.7710506e-002
 -7.6146786e-002 -9.3587430e-002
 -7.8463196e-002 -9.1732915e-002
 -8.1238411e-002 -9.1743608e-002
 -8.2589675e-002 -9.3021922e-002
 -8.2473502e-002 -9.5915444e-002
 -8.2650232e-002 -1.0121581e-001
 -8.4793624e-002 -1.0853454e-001
 -8.8540712e-002 -1.1528479e-001
 -9.1349802e-002 -1.1776489e-001
 -9.0664520e-002 -1.1404077e-001
 -8.6534315e-002 -1.0620971e-001
 -8.2170744e-002 -9.9700299e-002
 -8.1696070e-002 -9.9528753e-002
 -8.6690802e-002 -1.0619233e-001
 -9.4320918e-002 -1.1455094e-001
 -9.9104237e-002 -1.1727127e-001
 -9.7122582e-002 -1.1050452e-001
 -8.9409510e-002 -9.7503346e-002
 -8.1611988e-002 -8.6965183e-002
 -7.9896090e-002 -8.6918685e-002
 -8.6092070e-002 -9.8544840e-002
 -9.6079951e-002 -1.1483963e-001
 -1.0278567e-001 -1.2547779e-001
 -1.0164382e-001 -1.2434372e-001
 -9.4127836e-002 -1.1400102e-001
 -8.6403654e-002 -1.0353241e-001
 -8.4177609e-002 -1.0142565e-001
 -8.7903151e-002 -1.0903158e-001
 -9.2416196e-002 -1.1974389e-001
 -9.1262979e-002 -1.2443890e-001
 -8.2398776e-002 -1.1870923e-001
 -7.0132036e-002 -1.0589198e-001
 -6.1486954e-002 -9.3399309e-002
 -5.9960744e-002 -8.5660150e-002
 -6.1730430e-002 -7.9939284e-002
 -5.8283969e-002 -6.9026971e-002
 -4.3632470e-002 -4.8865613e-002
 -2.0292973e-002 -2.4521260e-002
  1.1098679e-003 -8.6763436e-003
  9.1455508e-003 -1.2749128e-002
  2.6660410e-004 -3.7450572e-002
 -1.8381764e-002 -7.0780121e-002
 -3.4673739e-002 -9.6057023e-002
 -4.1536957e-002 -1.0439406e-001
 -4.3032560e-002 -1.0162229e-001
 -5.0673018e-002 -1.0319064e-001
 -7.2244321e-002 -1.2029171e-001
 -1.0244280e-001 -1.4837527e-001
 -1.2410091e-001 -1.6855135e-001
 -1.2116430e-001 -1.6276274e-001
 -9.4090059e-002 -1.3147443e-001
 -6.4188668e-002 -9.8208188e-002
 -6.0114840e-002 -9.3486775e-002
 -9.3259176e-002 -1.2667421e-001
 -1.3966227e-001 -1.6629314e-001
 -1.4503602e-001 -1.4758272e-001
 -5.4920329e-002 -8.9452454e-003
  1.4594979e-001  2.6222497e-001
  4.1106679e-001  6.0450065e-001
  6.4457052e-001  8.9888527e-001
  7.4600986e-001  1.0228069e+000
  6.6330467e-001  9.1306379e-001
  4.2264400e-001  6.0119971e-001
  1.1671638e-001  1.9974873e-001
 -1.4244882e-001 -1.5319232e-001
 -2.7852582e-001 -3.5928706e-001
 -2.8251002e-001 -3.9886901e-001
 -2.0508207e-001 -3.2486646e-001
 -1.1841659e-001 -2.2062138e-001
 -7.3395503e-002 -1.5064804e-001
 -7.7749559e-002 -1.3314095e-001
 -1.0431597e-001 -1.4571713e-001
 -1.1866462e-001 -1.5368784e-001
 -1.0482176e-001 -1.3815202e-001
 -7.2566218e-002 -1.0573966e-001
 -4.4920414e-002 -7.7621137e-002
 -3.8312006e-002 -6.9980900e-002
 -5.0942704e-002 -8.1881578e-002
 -6.6598979e-002 -9.8207260e-002
 -6.8842744e-002 -1.0297318e-001
 -5.3479487e-002 -9.1268799e-002
 -3.0021455e-002 -7.0834119e-002
 -1.2389394e-002 -5.3653679e-002
 -7.2426885e-003 -4.5531604e-002
 -9.2967802e-003 -4.2304137e-002
 -6.6895300e-003 -3.5011724e-002
  8.6941993e-003 -1.8782004e-002
  3.4568663e-002  2.5022560e-003
  6.0377176e-002  1.9570299e-002
  7.5976350e-002  2.6083335e-002
  7.9825237e-002  2.4768486e-002
  8.0201761e-002  2.6182622e-002
  8.8819246e-002  4.0979048e-002
  1.1214004e-001  7.1940285e-002
  1.4704691e-001  1.1202602e-001
  1.8389475e-001  1.4984920e-001
  2.1394207e-001  1.7812447e-001
  2.3515756e-001  1.9841863e-001
  2.5219604e-001  2.1869406e-001
  2.7115104e-001  2.4599063e-001
  2.9376180e-001  2.8026471e-001
  3.1573127e-001  3.1412328e-001
  3.3022859e-001  3.3845358e-001
  3.3324155e-001  3.4908805e-001
  3.2626009e-001  3.4907717e-001
  3.1416346e-001  3.4487120e-001
  3.0034247e-001  3.3975893e-001
  2.8344222e-001  3.3021443e-001
  2.5853193e-001  3.0831840e-001
  2.2196377e-001  2.6860635e-001
  1.7580265e-001  2.1381390e-001
  1.2814467e-001  1.5487982e-001
  8.8795646e-002  1.0488515e-001
  6.3341978e-002  7.1145975e-002
  5.0065897e-002  5.1304373e-002
  4.1973029e-002  3.6140254e-002
  3.2213826e-002  1.6845125e-002
  1.8692152e-002 -8.6908869e-003
  4.7743974e-003 -3.4987963e-002
 -4.2237320e-003 -5.3803608e-002
 -5.5461126e-003 -6.0564231e-002
 -1.0547651e-003 -5.7617671e-002
  4.5299517e-003 -5.2090149e-002
  7.4437866e-003 -5.0451798e-002
  7.4991500e-003 -5.4095865e-002
  7.5286794e-003 -5.9234673e-002
  1.0432558e-002 -6.0696210e-002
  1.6442295e-002 -5.6422652e-002
  2.2974285e-002 -4.9012422e-002
  2.7014241e-002 -4.3437802e-002
  2.7780428e-002 -4.3088196e-002
  2.7363379e-002 -4.7410814e-002
  2.8771773e-002 -5.2879786e-002
  3.3105929e-002 -5.6171785e-002
  3.8451256e-002 -5.6735325e-002
  4.1525499e-002 -5.6684870e-002
  4.0740682e-002 -5.8285291e-002
  3.7913090e-002 -6.1541418e-002
  3.7028610e-002 -6.4090647e-002
  4.0946005e-002 -6.3519693e-002
  4.8663239e-002 -6.0026692e-002
  5.5706629e-002 -5.6886034e-002
  5.7500174e-002 -5.8073207e-002
  5.3152138e-002 -6.4839145e-002
  4.6362223e-002 -7.4282179e-002
  4.2590425e-002 -8.1307688e-002
  4.4455060e-002 -8.2660444e-002
  4.9283107e-002 -7.9680788e-002
  5.0867928e-002 -7.7443032e-002
  4.4516050e-002 -8.0562028e-002
  3.1410164e-002 -8.8986018e-002
  1.8610649e-002 -9.7431517e-002
  1.4371082e-002 -9.9178688e-002
  2.2015354e-002 -9.1590865e-002
  3.7168496e-002 -7.8926641e-002
  5.0655520e-002 -6.9867019e-002
  5.5162025e-002 -7.1232889e-002
  5.0698208e-002 -8.2544864e-002
  4.4540242e-002 -9.5850133e-002
  4.5570226e-002 -1.0129056e-001
  5.7303836e-002 -9.4431906e-002
  7.4906092e-002 -7.9827164e-002
  8.8698885e-002 -6.7847798e-002
  9.1630412e-002 -6.6975726e-002
  8.4889560e-002 -7.7377597e-002
  7.7270612e-002 -9.0695511e-002
  7.8513612e-002 -9.6515499e-002
  9.1788509e-002 -9.0455201e-002
  1.1110830e-001 -7.7740193e-002
  1.2596781e-001 -6.9167539e-002
  1.2976162e-001 -7.2549137e-002
  1.2543012e-001 -8.6202565e-002
  1.2373843e-001 -9.9743268e-002
  1.3511258e-001 -1.0181814e-001
  1.6112160e-001 -8.8683269e-002
  1.9228373e-001 -6.7077805e-002
  2.1432318e-001 -4.8644705e-002
  2.1848644e-001 -4.0371871e-002
  2.0830614e-001 -3.8664446e-002
  1.9758937e-001 -3.2190746e-002
  2.0074760e-001 -1.1803383e-002
  2.2240271e-001  2.0220143e-002
  2.5381346e-001  4.9322370e-002
  2.7879910e-001  5.7866528e-002
  2.8464291e-001  3.7925992e-002
  2.7006746e-001 -2.1081429e-003
  2.4463728e-001 -4.2740400e-002
  2.2073024e-001 -6.6986525e-002
  2.0471076e-001 -7.2096654e-002
  1.9438113e-001 -7.0093843e-002
  1.8404621e-001 -7.6462198e-002
  1.7216558e-001 -9.5891238e-002
  1.6417764e-001 -1.1715975e-001
  1.6705292e-001 -1.2254929e-001
  1.7989024e-001 -1.0502605e-001
  1.8963775e-001 -7.8536367e-002
  1.7835104e-001 -7.0045135e-002
  1.3944653e-001 -9.5614099e-002
  9.1566891e-002 -1.3700239e-001
  7.7286842e-002 -1.3893977e-001
  1.4232193e-001 -3.5829558e-002
  3.0482200e-001  2.0400579e-001
  5.3364476e-001  5.4370642e-001
  7.5224925e-001  8.7863879e-001
  8.7047662e-001  1.0785649e+000
  8.2903088e-001  1.0513453e+000
  6.3177898e-001  7.9246108e-001
  3.4655183e-001  3.9100426e-001
  7.2859849e-002 -1.2645960e-002
 -1.0581154e-001 -2.9379640e-001
 -1.5861940e-001 -3.9769313e-001
 -1.1371630e-001 -3.5272619e-001
 -3.3610071e-002 -2.3978585e-001
  2.3307699e-002 -1.4051198e-001
  3.1829201e-002 -9.6594242e-002
  4.4873377e-003 -1.0096286e-001
 -2.6841772e-002 -1.1939223e-001
 -3.7059854e-002 -1.2243234e-001
 -2.3866054e-002 -1.0494254e-001
 -5.0190686e-003 -8.2941055e-002
 -1.9133285e-003 -7.5101028e-002
 -2.2742501e-002 -8.5600894e-002
 -5.7152894e-002 -1.0137593e-001
 -8.4800786e-002 -1.0394461e-001
 -9.0394224e-002 -8.4904076e-002
 -7.4000882e-002 -5.2422104e-002
 -4.9853623e-002 -2.4293906e-002
 -3.5527888e-002 -1.3828689e-002
 -3.9958750e-002 -2.0121185e-002
 -5.8521151e-002 -2.9841718e-002
 -7.7752541e-002 -2.8344237e-002
 -8.5347393e-002 -1.0912260e-002
 -7.7954640e-002  1.4601933e-002
 -6.1796649e-002  3.5127424e-002
 -4.6616310e-002  4.3277948e-002
 -3.8167810e-002  4.3053076e-002
 -3.4619485e-002  4.6303116e-002
 -2.8890217e-002  6.3224062e-002
 -1.4461116e-002  9.4724748e-002
  9.9359911e-003  1.3242639e-001
  3.9878990e-002  1.6576243e-001
  6.8684200e-002  1.9009720e-001
  9.1723948e-002  2.0942870e-001
  1.0846531e-001  2.3198848e-001
  1.2119360e-001  2.6269929e-001
  1.3199912e-001  2.9872400e-001
  1.4063669e-001  3.3133865e-001
  1.4468788e-001  3.5213323e-001
  1.4144534e-001  3.5822739e-001
  1.2971553e-001  3.5251231e-001
  1.1002837e-001  3.3930313e-001
  8.3524489e-002  3.1979457e-001
  5.0670436e-002  2.9138876e-001
  1.1295036e-002  2.5146001e-001
 -3.4018101e-002  2.0195103e-001
 -8.2472445e-002  1.5030613e-001
 -1.2895760e-001  1.0544486e-001
 -1.6786675e-001  7.1738149e-002
 -1.9577875e-001  4.6023108e-002
 -2.1309112e-001  2.0555167e-002
 -2.2352054e-001 -1.0221204e-002
 -2.3168866e-001 -4.4357592e-002
 -2.4056736e-001 -7.3053213e-002
 -2.5045460e-001 -8.7087507e-002
 -2.5997725e-001 -8.4145850e-002
 -2.6817031e-001 -7.1412248e-002
 -2.7573227e-001 -6.1150694e-002
 -2.8442399e-001 -6.2498252e-002
 -2.9503352e-001 -7.5487024e-002
 -3.0576986e-001 -9.1728070e-002
 -3.1263017e-001 -1.0087327e-001
 -3.1202639e-001 -9.7912415e-002
 -3.0399810e-001 -8.5905660e-002
 -2.9353667e-001 -7.2646584e-002
 -2.8848937e-001 -6.4470681e-002
 -2.9477937e-001 -6.2236527e-002
 -3.1182407e-001 -6.2311612e-002
 -3.3142381e-001 -6.1042316e-002
 -3.4147538e-001 -5.8427875e-002
 -3.3290238e-001 -5.7855757e-002
 -3.0564445e-001 -6.2308268e-002
 -2.6978767e-001 -7.0814462e-002
 -2.4050212e-001 -7.8591446e-002
 -2.2938895e-001 -8.0981880e-002
 -2.3742075e-001 -7.7763375e-002
 -2.5413499e-001 -7.3942271e-002
 -2.6382819e-001 -7.5783829e-002
 -2.5517381e-001 -8.5305307e-002
 -2.2820698e-001 -9.7973192e-002
 -1.9411116e-001 -1.0584048e-001
 -1.6785948e-001 -1.0404847e-001
 -1.5854064e-001 -9.5307903e-002
 -1.6381466e-001 -8.8411811e-002
 -1.7234329e-001 -9.1552612e-002
 -1.7237469e-001 -1.0561913e-001
 -1.6041410e-001 -1.2297955e-001
 -1.4368302e-001 -1.3304252e-001
 -1.3443210e-001 -1.3045371e-001
 -1.4019405e-001 -1.1939167e-001
 -1.5721082e-001 -1.1038964e-001
 -1.7226064e-001 -1.1206804e-001
 -1.7210488e-001 -1.2434123e-001
 -1.5382425e-001 -1.3862263e-001
 -1.2817407e-001 -1.4488018e-001
 -1.1288828e-001 -1.3985320e-001
 -1.2005679e-001 -1.2952965e-001
 -1.4664114e-001 -1.2385138e-001
 -1.7537718e-001 -1.2793131e-001
 -1.8627312e-001 -1.3722405e-001
 -1.7089222e-001 -1.4116372e-001
 -1.3903897e-001 -1.3242130e-001
 -1.1244908e-001 -1.1403782e-001
 -1.0934342e-001 -9.7826930e-002
 -1.3066594e-001 -9.4499386e-002
 -1.5814618e-001 -1.0331865e-001
 -1.6646694e-001 -1.1046414e-001
 -1.4131160e-001 -9.8792079e-002
 -9.0610180e-002 -6.2460976e-002
 -4.0430112e-002 -1.4777474e-002
 -1.7908887e-002  1.8059119e-002
 -3.3038418e-002  1.4163182e-002
 -7.2286099e-002 -2.8078593e-002
 -1.0868319e-001 -8.7589197e-002
 -1.2121773e-001 -1.3450934e-001
 -1.0936377e-001 -1.5064070e-001
 -9.2070753e-002 -1.4128382e-001
 -9.1784776e-002 -1.2914700e-001
 -1.1564486e-001 -1.3494658e-001
 -1.4839776e-001 -1.5990236e-001
 -1.6339180e-001 -1.8466796e-001
 -1.4410478e-001 -1.8639532e-001
 -9.9937551e-002 -1.6056896e-001
 -6.2759858e-002 -1.2860451e-001
 -6.4242172e-002 -1.2180722e-001
 -1.0856788e-001 -1.5083646e-001
 -1.6070460e-001 -1.8386414e-001
 -1.6147801e-001 -1.5418285e-001
 -6.3163343e-002  9.1618159e-004
  1.3576755e-001  2.9158252e-001
  3.7968115e-001  6.4973468e-001
  5.7813480e-001  9.4817991e-001
  6.5043415e-001  1.0591255e+000
  5.6726627e-001  9.2080808e-001
  3.6539846e-001  5.7324901e-001
  1.2742392e-001  1.4114807e-001
 -6.0957369e-002 -2.2708482e-001
 -1.5127468e-001 -4.2941684e-001
 -1.4839018e-001 -4.5056071e-001
 -9.6523650e-002 -3.5331355e-001
 -4.7194429e-002 -2.3137379e-001
 -2.9880243e-002 -1.5513090e-001
 -4.1776183e-002 -1.4196850e-001
 -5.9037839e-002 -1.6352119e-001
 -5.8518430e-002 -1.7805112e-001
 -3.4308269e-002 -1.6280014e-001
  6.3050699e-004 -1.2571505e-001
  2.6293275e-002 -9.2930043e-002
  3.0749370e-002 -8.5326550e-002
  1.7714545e-002 -1.0265797e-001
  2.3039488e-003 -1.2568901e-001
 -5.6099973e-004 -1.3223136e-001
  1.3631722e-002 -1.1377452e-001
  3.7070063e-002 -8.0511986e-002
  5.6411435e-002 -5.2226289e-002
  6.2682330e-002 -4.3132600e-002
  5.7068541e-002 -5.2175140e-002
  4.9250312e-002 -6.5190029e-002
  5.0173338e-002 -6.6060606e-002
  6.4690242e-002 -4.8019555e-002
  8.8988665e-002 -1.7067771e-002
  1.1407047e-001  1.3972084e-002
  1.3221841e-001  3.5360423e-002
  1.4185008e-001  4.6751760e-002
  1.4770236e-001  5.5848789e-002
  1.5681754e-001  7.1467008e-002
  1.7346485e-001  9.6868582e-002
  1.9654076e-001  1.2836011e-001
  2.2070497e-001  1.5940641e-001
  2.4007263e-001  1.8631889e-001
  2.5169175e-001  2.1073027e-001
  2.5661610e-001  2.3708427e-001
  2.5826274e-001  2.6750517e-001
  2.5953173e-001  2.9843138e-001
  2.6085681e-001  3.2198469e-001
  2.6016195e-001  3.3100188e-001
  2.5442452e-001  3.2389186e-001
  2.4148520e-001  3.0551929e-001
  2.2086130e-001  2.8337232e-001
  1.9337634e-001  2.6198841e-001
  1.6026592e-001  2.3977027e-001
  1.2269866e-001  2.1065352e-001
  8.2159942e-002  1.6943273e-001
  4.1101693e-002  1.1680186e-001
  3.0833230e-003  6.0409384e-002
 -2.8122938e-002  1.1135721e-002
 -5.0111779e-002 -2.2924087e-002
 -6.3066760e-002 -4.0604704e-002
 -6.9832415e-002 -4.7474733e-002
 -7.4570830e-002 -5.1672968e-002
 -8.0789539e-002 -5.8883602e-002
 -8.9861757e-002 -6.9777542e-002
 -1.0082371e-001 -8.1132244e-002
 -1.1134590e-001 -8.9169262e-002
 -1.1914060e-001 -9.2441170e-002
 -1.2294832e-001 -9.2235605e-002
 -1.2276782e-001 -9.0802381e-002
 -1.1947479e-001 -8.9185977e-002
 -1.1435116e-001 -8.6562597e-002
 -1.0893530e-001 -8.1625111e-002
 -1.0496839e-001 -7.4501842e-002
 -1.0416537e-001 -6.7466823e-002
 -1.0763536e-001 -6.3705215e-002
 -1.1520910e-001 -6.4989797e-002
 -1.2526783e-001 -7.0209373e-002
 -1.3527620e-001 -7.5910108e-002
 -1.4291637e-001 -7.8563329e-002
 -1.4706657e-001 -7.6762906e-002
 -1.4809889e-001 -7.1832950e-002
 -1.4733095e-001 -6.6501119e-002
 -1.4615310e-001 -6.2887924e-002
 -1.4552004e-001 -6.1464257e-002
 -1.4600995e-001 -6.1517282e-002
 -1.4818118e-001 -6.2498298e-002
 -1.5258153e-001 -6.4679904e-002
 -1.5921162e-001 -6.8457573e-002
 -1.6692379e-001 -7.3083163e-002
 -1.7349346e-001 -7.6284485e-002
 -1.7668800e-001 -7.5626254e-002
 -1.7586720e-001 -7.0851136e-002
 -1.7288305e-001 -6.5145470e-002
 -1.7129861e-001 -6.3735812e-002
 -1.7424635e-001 -7.0450418e-002
 -1.8219036e-001 -8.4492337e-002
 -1.9240708e-001 -1.0027989e-001
 -2.0069326e-001 -1.1083700e-001
 -2.0419153e-001 -1.1246268e-001
 -2.0333703e-001 -1.0725135e-001
 -2.0143476e-001 -1.0128159e-001
 -2.0202264e-001 -9.9722340e-002
 -2.0610086e-001 -1.0267305e-001
 -2.1137032e-001 -1.0517794e-001
 -2.1413383e-001 -1.0153615e-001
 -2.1230459e-001 -9.0413596e-002
 -2.0705782e-001 -7.6325895e-002
 -2.0169693e-001 -6.5835971e-002
 -1.9855569e-001 -6.1335214e-002
 -1.9667845e-001 -5.7864898e-002
 -1.9242404e-001 -4.6471227e-002
 -1.8286785e-001 -2.2277340e-002
 -1.6930445e-001  8.9613630e-003
 -1.5763800e-001  3.1892648e-002
 -1.5471287e-001  3.1047298e-002
 -1.6311714e-001  2.3848704e-003
 -1.7859986e-001 -4.1960973e-002
 -1.9266004e-001 -8.0425818e-002
 -1.9875599e-001 -9.6383964e-002
 -1.9753654e-001 -8.9778929e-002
 -1.9641840e-001 -7.6705848e-002
 -2.0324831e-001 -7.6434321e-002
 -2.1868242e-001 -9.5315788e-002
 -2.3388297e-001 -1.2063685e-001
 -2.3645154e-001 -1.3054676e-001
 -2.2098330e-001 -1.1345174e-001
 -1.9588721e-001 -8.1257394e-002
 -1.7933720e-001 -6.3269344e-002
 -1.8501620e-001 -8.1441163e-002
 -2.0666395e-001 -1.2343593e-001
 -2.1388351e-001 -1.3559254e-001
 -1.6583742e-001 -4.7330884e-002
 -3.7440995e-002  1.8296198e-001
  1.5744231e-001  5.2811636e-001
  3.6227286e-001  8.8702790e-001
  4.9951991e-001  1.1237974e+000
  5.0812599e-001  1.1333299e+000
  3.7611136e-001  8.9702276e-001
  1.4907801e-001  4.9581359e-001
 -9.1206572e-002  7.1805023e-002
 -2.6626582e-001 -2.3998298e-001
 -3.3646884e-001 -3.7157840e-001
 -3.1345286e-001 -3.4193831e-001
 -2.4506772e-001 -2.3034286e-001
 -1.8414043e-001 -1.2402353e-001
 -1.6063185e-001 -7.2893920e-002
 -1.7228409e-001 -7.5456856e-002
 -1.9556699e-001 -9.7424838e-002
 -2.0639803e-001 -1.0463015e-001
 -1.9604628e-001 -8.6449717e-002
 -1.7316978e-001 -5.6781203e-002
 -1.5375226e-001 -3.7152353e-002
 -1.4807257e-001 -3.7766367e-002
 -1.5437391e-001 -5.0842015e-002
 -1.6227722e-001 -5.9166431e-002
 -1.6171515e-001 -5.0921064e-002
 -1.5004071e-001 -2.8515040e-002
 -1.3255208e-001 -5.3502813e-003
 -1.1708363e-001  5.7722444e-003
 -1.0788389e-001  2.6393978e-003
 -1.0326500e-001 -5.4330587e-003
 -9.8163723e-002 -5.5732063e-003
 -8.8730598e-002  8.6780708e-003
 -7.4947691e-002  3.3250145e-002
 -5.9629151e-002  5.7762799e-002
 -4.5086353e-002  7.4148257e-002
 -3.0799011e-002  8.2541181e-002
 -1.3978505e-002  9.0297647e-002
  7.6594827e-003  1.0564966e-001
  3.3230216e-002  1.3127842e-001
  5.8775940e-002  1.6274079e-001
  7.9964741e-002  1.9254261e-001
  9.5120665e-002  2.1599894e-001
  1.0634565e-001  2.3427710e-001
  1.1781918e-001  2.5253400e-001
  1.3257164e-001  2.7505211e-001
  1.5003945e-001  3.0126131e-001
  1.6622238e-001  3.2561182e-001
  1.7589253e-001  3.4095344e-001
  1.7538102e-001  3.4265885e-001
  1.6394358e-001  3.3053928e-001
  1.4334574e-001  3.0771913e-001
  1.1639726e-001  2.7788430e-001
  8.5669972e-002  2.4321209e-001
  5.3135885e-002  2.0419423e-001
  2.0353554e-002  1.6090335e-001
 -1.1251219e-002  1.1438811e-001
 -4.0591223e-002  6.7013957e-002
 -6.7056105e-002  2.1989942e-002
 -9.0386976e-002 -1.7445715e-002
 -1.1015398e-001 -4.8649429e-002
 -1.2532017e-001 -7.0082650e-002
 -1.3467578e-001 -8.1993415e-002
 -1.3786559e-001 -8.6932598e-002
 -1.3635484e-001 -8.9400215e-002
 -1.3316019e-001 -9.4054045e-002
 -1.3142033e-001 -1.0318545e-001
 -1.3247479e-001 -1.1504935e-001
 -1.3504257e-001 -1.2456122e-001
 -1.3622705e-001 -1.2643995e-001
 -1.3379178e-001 -1.1892562e-001
 -1.2800034e-001 -1.0535873e-001
 -1.2163368e-001 -9.2380753e-002
 -1.1797131e-001 -8.5722058e-002
 -1.1840077e-001 -8.6646882e-002
 -1.2120992e-001 -9.1473857e-002
 -1.2272054e-001 -9.4552561e-002
 -1.1986844e-001 -9.2423216e-002
 -1.1238180e-001 -8.6025564e-002
 -1.0303760e-001 -7.9438813e-002
 -9.5902327e-002 -7.6411062e-002
 -9.3829360e-002 -7.7533423e-002
 -9.7068443e-002 -8.0279299e-002
 -1.0363472e-001 -8.1658800e-002
 -1.1090291e-001 -8.1051002e-002
 -1.1703770e-001 -8.0811881e-002
 -1.2138053e-001 -8.4053397e-002
 -1.2401929e-001 -9.1703208e-002
 -1.2511795e-001 -1.0130563e-001
 -1.2479896e-001 -1.0869485e-001
 -1.2349785e-001 -1.1113700e-001
 -1.2206275e-001 -1.0922053e-001
 -1.2123559e-001 -1.0592243e-001
 -1.2090502e-001 -1.0378962e-001
 -1.1995644e-001 -1.0280704e-001
 -1.1719563e-001 -1.0086837e-001
 -1.1267905e-001 -9.6466512e-002
 -1.0827616e-001 -9.1053677e-002
 -1.0668276e-001 -8.8611589e-002
 -1.0928573e-001 -9.2457983e-002
 -1.1467117e-001 -1.0188414e-001
 -1.1920447e-001 -1.1177326e-001
 -1.1960786e-001 -1.1600976e-001
 -1.1574439e-001 -1.1230243e-001
 -1.1104609e-001 -1.0425447e-001
 -1.1004110e-001 -9.8744790e-002
 -1.1455603e-001 -1.0032868e-001
 -1.2159826e-001 -1.0718214e-001
 -1.2502884e-001 -1.1212137e-001
 -1.2006920e-001 -1.0826139e-001
 -1.0742853e-001 -9.4736352e-002
 -9.3306098e-002 -7.7602845e-002
 -8.5106112e-002 -6.4871365e-002
 -8.5601891e-002 -5.9523992e-002
 -9.0409393e-002 -5.6612314e-002
 -9.0905062e-002 -4.7447739e-002
 -8.0863542e-002 -2.7940608e-002
 -6.1840651e-002 -4.2050792e-003
 -4.2794313e-002  1.0089863e-002
 -3.4007355e-002  3.4344099e-003
 -3.9701440e-002 -2.3970459e-002
 -5.5181026e-002 -5.8979188e-002
 -7.0858077e-002 -8.4546651e-002
 -8.0154156e-002 -9.2652162e-002
 -8.4618957e-002 -9.0633210e-002
 -9.1775841e-002 -9.4877289e-002
 -1.0715172e-001 -1.1606045e-001
 -1.2732290e-001 -1.4782864e-001
 -1.4054556e-001 -1.6949562e-001
 -1.3601198e-001 -1.6265514e-001
 -1.1481167e-001 -1.2924370e-001
 -9.2632274e-002 -9.4898807e-002
 -8.9396328e-002 -9.0624554e-002
 -1.1101939e-001 -1.2301523e-001
 -1.3663469e-001 -1.5513347e-001
 -1.2367251e-001 -1.1725998e-001
 -3.1870892e-002  5.2435768e-002
  1.4654102e-001  3.5958430e-001
  3.7030315e-001  7.3002580e-001
  5.6033698e-001  1.0316719e+000
  6.3606380e-001  1.1355121e+000
  5.5764860e-001  9.8314049e-001
  3.4918880e-001  6.2115218e-001
  8.8443952e-002  1.8091353e-001
 -1.3176329e-001 -1.8579047e-001
 -2.4841559e-001 -3.7861388e-001
 -2.5410014e-001 -3.8802891e-001
 -1.9081830e-001 -2.8334198e-001
 -1.1881927e-001 -1.6184697e-001
 -8.1295011e-002 -9.2906702e-002
 -8.5906883e-002 -8.9614588e-002
 -1.1112008e-001 -1.1936393e-001
 -1.2859506e-001 -1.3897410e-001
 -1.2431571e-001 -1.2721366e-001
 -1.0491036e-001 -9.4150293e-002
 -8.7709852e-002 -6.5873414e-002
 -8.4846527e-002 -6.0408585e-002
 -9.4018975e-002 -7.4081012e-002
 -1.0203234e-001 -8.7042948e-002
 -9.6789409e-002 -8.1121302e-002
 -7.7367389e-002 -5.4622284e-002
 -5.4408967e-002 -2.2798482e-002
 -4.1044449e-002 -4.7804439e-003
 -4.2334172e-002 -8.2403320e-003
 -5.1289763e-002 -2.3815567e-002
 -5.4502859e-002 -3.2965488e-002
 -4.2661004e-002 -2.2413481e-002
 -1.7394844e-002  6.2907708e-003
  1.0321418e-002  3.9066331e-002
  2.8989302e-002  6.0878033e-002
  3.5462703e-002  6.7179176e-002
  3.7120437e-002  6.6622852e-002
  4.6057276e-002  7.3647831e-002
  6.9846705e-002  9.7192949e-002
  1.0579176e-001  1.3440442e-001
  1.4290473e-001  1.7360215e-001
  1.6964396e-001  2.0342549e-001
  1.8159146e-001  2.2080592e-001
  1.8365235e-001  2.3199205e-001
  1.8570189e-001  2.4662658e-001
  1.9519698e-001  2.7001772e-001
  2.1231435e-001  2.9949993e-001
  2.3037334e-001  3.2687979e-001
  2.4056695e-001  3.4423583e-001
  2.3713673e-001  3.4814170e-001
  2.1964660e-001  3.3960264e-001
  1.9166885e-001  3.2089469e-001
  1.5784624e-001  2.9289654e-001
  1.2188561e-001  2.5546828e-001
  8.6525527e-002  2.1012561e-001
  5.4291528e-002  1.6190935e-001
  2.7531990e-002  1.1793156e-001
  7.1509738e-003  8.3199505e-002
 -8.6403742e-003  5.7146909e-002
 -2.3896659e-002  3.4103255e-002
 -4.2357171e-002  7.9060494e-003
 -6.4288501e-002 -2.2704107e-002
 -8.5355723e-002 -5.2247452e-002
 -9.8831967e-002 -7.2044781e-002
 -9.9994054e-002 -7.6654299e-002
 -8.9718525e-002 -6.8361568e-002
 -7.4564612e-002 -5.6151815e-002
 -6.3190646e-002 -4.9889025e-002
 -6.1344829e-002 -5.3898196e-002
 -6.8829092e-002 -6.4721581e-002
 -8.0287740e-002 -7.4386161e-002
 -8.9017295e-002 -7.6481150e-002
 -9.0916123e-002 -7.0293374e-002
 -8.6080765e-002 -6.0223270e-002
 -7.7576812e-002 -5.1564300e-002
 -6.8847776e-002 -4.6457797e-002
 -6.1962334e-002 -4.3333369e-002
 -5.7666984e-002 -3.9874068e-002
 -5.6374423e-002 -3.6342539e-002
 -5.8681975e-002 -3.6012609e-002
 -6.4673237e-002 -4.2085773e-002
 -7.2747292e-002 -5.3749268e-002
 -7.9510727e-002 -6.5307587e-002
 -8.1413584e-002 -6.9663882e-002
 -7.7236470e-002 -6.3814666e-002
 -6.9339881e-002 -5.1790375e-002
 -6.2491475e-002 -4.2383265e-002
 -6.0849807e-002 -4.2906233e-002
 -6.5193256e-002 -5.3707043e-002
 -7.2611181e-002 -6.7830841e-002
 -7.8906666e-002 -7.6312886e-002
 -8.1740303e-002 -7.4979857e-002
 -8.2100367e-002 -6.7514527e-002
 -8.2800019e-002 -6.2236401e-002
 -8.5529064e-002 -6.5237963e-002
 -8.8957029e-002 -7.5390531e-002
 -8.9691321e-002 -8.5364715e-002
 -8.5420962e-002 -8.7853609e-002
 -7.7554581e-002 -8.1858373e-002
 -7.0849669e-002 -7.3782495e-002
 -6.9967971e-002 -7.2157755e-002
 -7.5563784e-002 -8.0255434e-002
 -8.3158563e-002 -9.2704453e-002
 -8.6193424e-002 -9.9369583e-002
 -8.1055341e-002 -9.3602430e-002
 -7.0194557e-002 -7.8297921e-002
 -6.0660169e-002 -6.4533089e-002
 -5.8880646e-002 -6.3359649e-002
 -6.5678658e-002 -7.7040590e-002
 -7.5379697e-002 -9.6676492e-002
 -8.0009610e-002 -1.0857984e-001
 -7.5449346e-002 -1.0469710e-001
 -6.4741239e-002 -8.8982873e-002
 -5.5794512e-002 -7.4600230e-002
 -5.5237701e-002 -7.3891189e-002
 -6.3215456e-002 -8.8847921e-002
 -7.3151801e-002 -1.0948748e-001
 -7.6847629e-002 -1.2142741e-001
 -7.0720935e-002 -1.1652504e-001
 -5.8251967e-002 -9.8239169e-002
 -4.6680257e-002 -7.7536305e-002
 -4.0693759e-002 -6.3106714e-002
 -3.8497638e-002 -5.4279476e-002
 -3.3631888e-002 -4.2816859e-002
 -2.1224798e-002 -2.2202614e-002
 -3.3398965e-003  3.7133413e-003
  1.1506523e-002  2.0910622e-002
  1.4740567e-002  1.5213936e-002
  5.0038308e-003 -1.5433217e-002
 -9.9252283e-003 -5.6914120e-002
 -1.9021716e-002 -8.7782334e-002
 -1.7376735e-002 -9.5158751e-002
 -1.1329736e-002 -8.5218259e-002
 -1.4203955e-002 -7.8937064e-002
 -3.5014720e-002 -9.5062974e-002
 -6.8946885e-002 -1.3331495e-001
 -9.8088659e-002 -1.7196837e-001
 -1.0374400e-001 -1.8377904e-001
 -8.1942961e-002 -1.5907377e-001
 -4.9432110e-002 -1.1712500e-001
 -3.3189864e-002 -9.3634698e-002
 -4.8359339e-002 -1.0992287e-001
 -8.0108494e-002 -1.4577858e-001
 -8.4578920e-002 -1.3919111e-001
 -1.2838147e-002 -2.0006919e-002
  1.5483189e-001  2.3975710e-001
  3.8605071e-001  5.9138348e-001
  6.0237653e-001  9.1734974e-001
  7.1442129e-001  1.0831244e+000
  6.6774492e-001  1.0059988e+000
  4.7302636e-001  7.0122899e-001
  2.0233662e-001  2.7742759e-001
 -4.6618234e-002 -1.1674725e-001
 -1.9778028e-001 -3.6401153e-001
 -2.2904644e-001 -4.2792411e-001
 -1.7340629e-001 -3.5540622e-001
 -9.1868761e-002 -2.3653402e-001
 -3.6900681e-002 -1.4985728e-001
 -2.7980223e-002 -1.2598374e-001
 -5.0901968e-002 -1.4652955e-001
 -7.6261166e-002 -1.7150280e-001
 -8.2130621e-002 -1.7219642e-001
 -6.6300495e-002 -1.4773006e-001
 -4.2870551e-002 -1.1846460e-001
 -2.8769229e-002 -1.0581873e-001
 -3.1222757e-002 -1.1545631e-001
 -4.4373681e-002 -1.3517647e-001
 -5.5368198e-002 -1.4631367e-001
 -5.3986247e-002 -1.3815128e-001
 -3.8731160e-002 -1.1441834e-001
 -1.6141859e-002 -8.8507526e-002
  4.7486143e-003 -7.2643634e-002
  1.8106784e-002 -6.9677008e-002
  2.3630147e-002 -7.2998249e-002
  2.5080549e-002 -7.2891799e-002
  2.7109105e-002 -6.3685199e-002
  3.2912407e-002 -4.6311906e-002
  4.3700483e-002 -2.5554944e-002
  5.9217649e-002 -5.4048103e-003
  7.8240453e-002  1.3411300e-002
  9.8866881e-002  3.2418207e-002
  1.1895507e-001  5.2676284e-002
  1.3704753e-001  7.3341373e-002
  1.5337936e-001  9.2729849e-002
  1.6990681e-001  1.1051376e-001
  1.8894364e-001  1.2866785e-001
  2.1109577e-001  1.5003272e-001
  2.3416552e-001  1.7570042e-001
  2.5393505e-001  2.0347376e-001
  2.6661718e-001  2.2893241e-001
  2.7109406e-001  2.4817551e-001
  2.6922380e-001  2.5993754e-001
  2.6379330e-001  2.6526390e-001
  2.5584811e-001  2.6528436e-001
  2.4343714e-001  2.5903385e-001
  2.2301156e-001  2.4350689e-001
  1.9246531e-001  2.1602173e-001
  1.5347606e-001  1.7699026e-001
  1.1125042e-001  1.3066760e-001
  7.1809016e-002  8.3201837e-002
  3.8773628e-002  3.9362153e-002
  1.2081426e-002  5.3363489e-004
 -1.0557382e-002 -3.4531101e-002
 -3.0817113e-002 -6.7024904e-002
 -4.7933497e-002 -9.5855815e-002
 -5.9346122e-002 -1.1775349e-001
 -6.3287664e-002 -1.2976450e-001
 -6.1133570e-002 -1.3202032e-001
 -5.7387792e-002 -1.2844502e-001
 -5.7096127e-002 -1.2465655e-001
 -6.2554718e-002 -1.2457510e-001
 -7.1740558e-002 -1.2818447e-001
 -7.9618662e-002 -1.3202014e-001
 -8.1497071e-002 -1.3188465e-001
 -7.6047707e-002 -1.2581583e-001
 -6.6000874e-002 -1.1522819e-001
 -5.6295328e-002 -1.0381129e-001
 -5.1110268e-002 -9.5293201e-002
 -5.1818598e-002 -9.1748350e-002
 -5.6913399e-002 -9.3242824e-002
 -6.3515378e-002 -9.8504767e-002
 -6.9056792e-002 -1.0560846e-001
 -7.2197175e-002 -1.1227986e-001
 -7.2740772e-002 -1.1608120e-001
 -7.1217728e-002 -1.1510710e-001
 -6.8637045e-002 -1.0913635e-001
 -6.6477350e-002 -1.0046181e-001
 -6.6414060e-002 -9.3295955e-002
 -6.9540904e-002 -9.1617705e-002
 -7.5517380e-002 -9.6732470e-002
 -8.2336375e-002 -1.0620367e-001
 -8.7310889e-002 -1.1523660e-001
 -8.8673358e-002 -1.1964438e-001
 -8.6807675e-002 -1.1846596e-001
 -8.4035750e-002 -1.1430107e-001
 -8.3073019e-002 -1.1124804e-001
 -8.5229922e-002 -1.1198339e-001
 -8.9577094e-002 -1.1609521e-001
 -9.3774607e-002 -1.2078144e-001
 -9.5887644e-002 -1.2320414e-001
 -9.5792556e-002 -1.2254708e-001
 -9.5239080e-002 -1.2035160e-001
 -9.6519891e-002 -1.1903044e-001
 -1.0087750e-001 -1.1998261e-001
 -1.0765221e-001 -1.2273433e-001
 -1.1467803e-001 -1.2554765e-001
 -1.1945120e-001 -1.2674671e-001
 -1.2029336e-001 -1.2555976e-001
 -1.1696863e-001 -1.2210228e-001
 -1.1070099e-001 -1.1688740e-001
 -1.0389701e-001 -1.1069383e-001
 -9.9435330e-002 -1.0476788e-001
 -9.9661431e-002 -1.0090872e-001
 -1.0512778e-001 -1.0072126e-001
 -1.1375644e-001 -1.0421538e-001
 -1.2135454e-001 -1.0903743e-001
 -1.2370624e-001 -1.1139356e-001
 -1.1929092e-001 -1.0854748e-001
 -1.1077752e-001 -1.0123537e-001
 -1.0381682e-001 -9.3804723e-002
 -1.0343562e-001 -9.1432795e-002
 -1.1035847e-001 -9.6201771e-002
 -1.2006436e-001 -1.0506929e-001
 -1.2566068e-001 -1.1164147e-001
 -1.2294823e-001 -1.1088877e-001
 -1.1382051e-001 -1.0312982e-001
 -1.0526467e-001 -9.4042220e-002
 -1.0424839e-001 -9.0344936e-002
 -1.1211670e-001 -9.4305920e-002
 -1.2290648e-001 -1.0159091e-001
 -1.2726191e-001 -1.0442437e-001
 -1.1938693e-001 -9.7794139e-002
 -1.0171231e-001 -8.3586468e-002
 -8.3478896e-002 -6.8985564e-002
 -7.3955839e-002 -6.0104719e-002
 -7.5340431e-002 -5.6141064e-002
 -8.0955917e-002 -4.9424414e-002
 -8.0522974e-002 -3.2184979e-002
 -6.8559935e-002 -4.8647736e-003
 -4.9396841e-002  2.1210231e-002
 -3.4460049e-002  3.0290552e-002
 -3.3639490e-002  1.3896824e-002
 -4.7454267e-002 -2.1248057e-002
 -6.6500485e-002 -5.6195887e-002
 -7.8917084e-002 -7.2593074e-002
 -8.0096840e-002 -6.6223528e-002
 -7.6526062e-002 -5.0410228e-002
 -8.0067897e-002 -4.5501675e-002
 -9.6876146e-002 -6.1959311e-002
 -1.2031874e-001 -9.0509315e-002
 -1.3478937e-001 -1.0855317e-001
 -1.2870216e-001 -9.9334752e-002
 -1.0651138e-001 -6.8894492e-002
 -8.8402409e-002 -4.4990148e-002
 -9.4887927e-002 -5.4765096e-002
 -1.2574712e-001 -9.5197991e-002
 -1.4988811e-001 -1.1970342e-001
 -1.1747069e-001 -5.6573959e-002
  9.0107740e-003  1.4613036e-001
  2.2303695e-001  4.7574161e-001
  4.6398784e-001  8.4147971e-001
  6.3943656e-001  1.1072740e+000
  6.7041809e-001  1.1571654e+000
  5.3427567e-001  9.5715352e-001
  2.7929739e-001  5.7664754e-001
  1.4625400e-003  1.5565325e-001
 -2.0365835e-001 -1.6401510e-001
 -2.8607413e-001 -3.0444197e-001
 -2.5861884e-001 -2.7821922e-001
 -1.7911217e-001 -1.6510749e-001
 -1.1149593e-001 -5.7678187e-002
 -9.0906397e-002 -1.0883891e-002
 -1.1209863e-001 -2.3529170e-002
 -1.4400326e-001 -5.6444491e-002
 -1.5655035e-001 -6.8912355e-002
 -1.4068685e-001 -4.6871111e-002
 -1.0996900e-001 -6.3449435e-003
 -8.6432707e-002  2.4831432e-002
 -8.3196715e-002  3.0188104e-002
 -9.6537629e-002  1.5253395e-002
 -1.1124458e-001  1.3585067e-004
 -1.1330597e-001  2.3041081e-003
 -9.9575157e-002  2.3920554e-002
 -7.8120136e-002  5.2430591e-002
 -6.0443690e-002  7.2165196e-002
 -5.2616242e-002  7.6762018e-002
 -5.1938623e-002  7.2888635e-002
 -5.0695791e-002  7.3464589e-002
 -4.2886336e-002  8.6840091e-002
 -2.8378389e-002  1.1070424e-001
 -1.1728735e-002  1.3498491e-001
  2.5184438e-003  1.5060917e-001
  1.3776568e-002  1.5679748e-001
  2.5520094e-002  1.6136857e-001
  4.2008709e-002  1.7442219e-001
  6.4586913e-002  2.0062914e-001
  9.0697242e-002  2.3616304e-001
  1.1602171e-001  2.7207496e-001
  1.3769797e-001  3.0104063e-001
  1.5588993e-001  3.2212926e-001
  1.7269643e-001  3.4032562e-001
  1.8965888e-001  3.6179580e-001
  2.0618268e-001  3.8896224e-001
  2.1997028e-001  4.1887377e-001
  2.2883441e-001  4.4556722e-001
  2.3202832e-001  4.6393987e-001
  2.2989619e-001  4.7195779e-001
  2.2242166e-001  4.7002075e-001
  2.0834626e-001  4.5875996e-001
  1.8593643e-001  4.3765522e-001
  1.5505821e-001  4.0586870e-001
  1.1866244e-001  3.6439272e-001
  8.2136881e-002  3.1731452e-001
  5.0550799e-002  2.7069389e-001
  2.5820048e-002  2.2970240e-001
  5.8706595e-003  1.9600280e-001
 -1.3353455e-002  1.6750846e-001
 -3.4451785e-002  1.4071228e-001
 -5.6276225e-002  1.1386491e-001
 -7.4548920e-002  8.8598433e-002
 -8.4884921e-002  6.8915403e-002
 -8.6008481e-002  5.8262872e-002
 -8.0811240e-002  5.6915559e-002
 -7.4517455e-002  6.1497599e-002
 -7.1418992e-002  6.6865037e-002
 -7.2485692e-002  6.8988608e-002
 -7.5492627e-002  6.6837166e-002
 -7.7211234e-002  6.2277307e-002
 -7.5866153e-002  5.8319592e-002
 -7.2050354e-002  5.7133628e-002
 -6.7690964e-002  5.9083634e-002
 -6.4255684e-002  6.3061532e-002
 -6.1706865e-002  6.7550311e-002
 -5.9018746e-002  7.1464453e-002
 -5.5583684e-002  7.4336174e-002
 -5.2228896e-002  7.5935850e-002
 -5.0856302e-002  7.5897167e-002
 -5.2960214e-002  7.3794318e-002
 -5.8225761e-002  6.9561506e-002
 -6.4415901e-002  6.3832478e-002
 -6.8714330e-002  5.7785618e-002
 -6.9485753e-002  5.2606437e-002
 -6.7264676e-002  4.8849574e-002
 -6.4236205e-002  4.6259465e-002
 -6.2707374e-002  4.4127265e-002
 -6.3633513e-002  4.1998004e-002
 -6.6187139e-002  4.0131769e-002
 -6.8591486e-002  3.9267745e-002
 -6.9479444e-002  3.9858560e-002
 -6.8758669e-002  4.1314572e-002
 -6.7560306e-002  4.1926319e-002
 -6.7392080e-002  3.9772677e-002
 -6.9248910e-002  3.4101901e-002
 -7.3148705e-002  2.6270827e-002
 -7.8315932e-002  1.9333418e-002
 -8.3668675e-002  1.6316431e-002
 -8.8246608e-002  1.8157715e-002
 -9.1338068e-002  2.2817902e-002
 -9.2430604e-002  2.6344955e-002
 -9.1258390e-002  2.5436244e-002
 -8.8020305e-002  1.9782543e-002
 -8.3624259e-002  1.2419906e-002
 -7.9693106e-002  7.6774158e-003
 -7.8105837e-002  7.9520837e-003
 -8.0165400e-002  1.1765142e-002
 -8.5789561e-002  1.4658925e-002
 -9.3265403e-002  1.2490805e-002
 -9.9825611e-002  4.8441322e-003
 -1.0298341e-001 -4.2140145e-003
 -1.0184560e-001 -8.7886411e-003
 -9.7647693e-002 -5.4679242e-003
 -9.3121315e-002  3.8855465e-003
 -9.0843749e-002  1.3212502e-002
 -9.1730100e-002  1.6455779e-002
 -9.4524643e-002  1.1919119e-002
 -9.6834012e-002  3.3340563e-003
 -9.6992857e-002 -3.3233468e-003
 -9.5355025e-002 -4.7546385e-003
 -9.4056360e-002 -3.1510446e-003
 -9.5205562e-002 -4.4657391e-003
 -9.8922481e-002 -1.3382614e-002
 -1.0283582e-001 -2.8983486e-002
 -1.0365074e-001 -4.4761208e-002
 -9.9879911e-002 -5.3339107e-002
 -9.3495478e-002 -5.2234573e-002
 -8.8922317e-002 -4.6003053e-002
 -8.9842556e-002 -4.2816690e-002
 -9.5981354e-002 -4.7912853e-002
 -1.0259344e-001 -5.9200019e-002
 -1.0350314e-001 -6.8797333e-002
 -9.5726963e-002 -6.9379820e-002
 -8.2260186e-002 -6.0331800e-002
 -7.0470163e-002 -4.8330423e-002
 -6.6833956e-002 -4.1551667e-002
 -7.1747171e-002 -4.2111722e-002
 -7.8555195e-002 -4.3361633e-002
 -7.7929693e-002 -3.5072985e-002
 -6.4796411e-002 -1.2972513e-002
 -4.2672136e-002  1.5055630e-002
 -2.1887175e-002  3.2178528e-002
 -1.2720290e-002  2.3885674e-002
 -1.8466933e-002 -1.0743502e-002
 -3.3753919e-002 -5.6943092e-002
 -4.9432958e-002 -9.3932340e-002
 -6.0088575e-002 -1.0967638e-001
 -6.7854167e-002 -1.0930506e-001
 -7.9094663e-002 -1.1004054e-001
 -9.6660823e-002 -1.2614844e-001
 -1.1459506e-001 -1.5590976e-001
 -1.2108986e-001 -1.8211508e-001
 -1.0885064e-001 -1.8724169e-001
 -8.4682732e-002 -1.7144833e-001
 -6.8854448e-002 -1.5712241e-001
 -8.1283057e-002 -1.7225685e-001
 -1.2217525e-001 -2.2183623e-001
 -1.6161693e-001 -2.6889897e-001
 -1.4947429e-001 -2.4446522e-001
 -4.4018074e-002 -8.7022752e-002
  1.5637491e-001  2.0991938e-001
  3.9961726e-001  5.7418859e-001
  5.9692062e-001  8.7610393e-001
  6.6442729e-001  9.8823416e-001
  5.6709949e-001  8.5175689e-001
  3.3898254e-001  5.1039641e-001
  6.7152085e-002  9.0661530e-002
 -1.5193357e-001 -2.6097917e-001
 -2.5863836e-001 -4.4795434e-001
 -2.5300975e-001 -4.6132239e-001
 -1.8364775e-001 -3.6746509e-001
 -1.1265704e-001 -2.5851103e-001
 -8.0017453e-002 -1.9885480e-001
 -8.8060460e-002 -1.9905155e-001
 -1.1169349e-001 -2.2723187e-001
 -1.2298902e-001 -2.4324480e-001
 -1.1160136e-001 -2.2914731e-001
 -8.8153490e-002 -1.9669475e-001
 -7.1604500e-002 -1.7157592e-001
 -7.2503479e-002 -1.7011716e-001
 -8.5281628e-002 -1.8713830e-001
 -9.4278136e-002 -2.0234593e-001
 -8.7164611e-002 -1.9793255e-001
 -6.4794378e-002 -1.7246574e-001
 -3.9981263e-002 -1.4076824e-001
 -2.6998247e-002 -1.2124267e-001
 -3.0534799e-002 -1.2156806e-001
 -4.2582078e-002 -1.3381112e-001
 -4.9054997e-002 -1.4176594e-001
 -4.0420251e-002 -1.3365666e-001
 -1.8084184e-002 -1.1009546e-001
  7.8772349e-003 -8.1851889e-002
  2.7267830e-002 -6.0152108e-002
  3.7420286e-002 -4.8004666e-002
  4.4282428e-002 -3.9054661e-002
  5.6719999e-002 -2.4022181e-002
  7.9043441e-002  1.2472973e-003
  1.0783729e-001  3.2819130e-002
  1.3522370e-001  6.2683463e-002
  1.5546985e-001  8.5813157e-002
  1.6941002e-001  1.0416497e-001
  1.8317560e-001  1.2443176e-001
  2.0254305e-001  1.5179588e-001
  2.2758989e-001  1.8508908e-001
  2.5205725e-001  2.1738674e-001
  2.6769971e-001  2.4129154e-001
  2.7015693e-001  2.5432825e-001
  2.6157153e-001  2.5985594e-001
  2.4811819e-001  2.6290795e-001
  2.3450547e-001  2.6447635e-001
  2.2006773e-001  2.5934170e-001
  1.9955754e-001  2.3949382e-001
  1.6801056e-001  2.0064932e-001
  1.2577082e-001  1.4679689e-001
  7.9702998e-002  8.9046547e-002
  3.9489853e-002  3.9471731e-002
  1.1752143e-002  4.3549297e-003
 -3.7729917e-003 -1.8428929e-002
 -1.3290500e-002 -3.6315131e-002
 -2.4090021e-002 -5.5898862e-002
 -3.9460954e-002 -7.8334436e-002
 -5.6931814e-002 -9.9398578e-002
 -7.0843615e-002 -1.1353330e-001
 -7.6966727e-002 -1.1842868e-001
 -7.5744840e-002 -1.1673358e-001
 -7.1848880e-002 -1.1387602e-001
 -7.0729650e-002 -1.1418103e-001
 -7.4822607e-002 -1.1825856e-001
 -8.2089898e-002 -1.2329847e-001
 -8.7840430e-002 -1.2566049e-001
 -8.8215994e-002 -1.2340338e-001
 -8.2735094e-002 -1.1700237e-001
 -7.4295818e-002 -1.0821274e-001
 -6.6947645e-002 -9.8490696e-002
 -6.3186126e-002 -8.8444040e-002
 -6.2748691e-002 -7.8509599e-002
 -6.3469085e-002 -6.9919680e-002
 -6.3332616e-002 -6.4687539e-002
 -6.2019901e-002 -6.4394830e-002
 -6.0962852e-002 -6.8829972e-002
 -6.1900373e-002 -7.5555193e-002
 -6.5380018e-002 -8.1175882e-002
 -7.0233801e-002 -8.3340639e-002
 -7.4484887e-002 -8.2192061e-002
 -7.6900312e-002 -8.0213860e-002
 -7.7979371e-002 -8.0616760e-002
 -7.9474418e-002 -8.5286612e-002
 -8.2744751e-002 -9.3555615e-002
 -8.7136269e-002 -1.0240973e-001
 -8.9783962e-002 -1.0791271e-001
 -8.7271757e-002 -1.0706176e-001
 -7.8162964e-002 -9.9244373e-002
 -6.4798148e-002 -8.6823897e-002
 -5.2698933e-002 -7.4445072e-002
 -4.7763533e-002 -6.7335488e-002
 -5.2650977e-002 -6.9017494e-002
 -6.4791200e-002 -7.9449396e-002
 -7.7578453e-002 -9.4780923e-002
 -8.4244916e-002 -1.0915741e-001
 -8.2038013e-002 -1.1777064e-001
 -7.3965454e-002 -1.1953430e-001
 -6.6802105e-002 -1.1752314e-001
 -6.6521685e-002 -1.1671232e-001
 -7.4264667e-002 -1.2045771e-001
 -8.5501775e-002 -1.2807844e-001
 -9.3113747e-002 -1.3528132e-001
 -9.2162496e-002 -1.3719381e-001
 -8.3117658e-002 -1.3183867e-001
 -7.1312421e-002 -1.2158914e-001
 -6.3108631e-002 -1.1147931e-001
 -6.1727261e-002 -1.0585436e-001
 -6.5609014e-002 -1.0575583e-001
 -7.0363904e-002 -1.0899554e-001
 -7.2517557e-002 -1.1246522e-001
 -7.2019980e-002 -1.1466763e-001
 -7.1628337e-002 -1.1629952e-001
 -7.3928383e-002 -1.1864065e-001
 -7.8686224e-002 -1.2145675e-001
 -8.2803225e-002 -1.2251976e-001
 -8.3077590e-002 -1.1947813e-001
 -7.9239522e-002 -1.1235649e-001
 -7.4651632e-002 -1.0444378e-001
 -7.3705964e-002 -1.0028615e-001
 -7.7969803e-002 -1.0223737e-001
 -8.4400970e-002 -1.0839065e-001
 -8.7409161e-002 -1.1383696e-001
 -8.3415405e-002 -1.1447017e-001
 -7.4230744e-002 -1.1023225e-001
 -6.6221055e-002 -1.0498458e-001
 -6.5596936e-002 -1.0299879e-001
 -7.3280799e-002 -1.0487653e-001
 -8.3587502e-002 -1.0661336e-001
 -8.8113961e-002 -1.0283802e-001
 -8.2064457e-002 -9.1692927e-002
 -6.8104396e-002 -7.6991973e-002
 -5.4412574e-002 -6.5306427e-002
 -4.8282589e-002 -6.0011076e-002
 -5.0208166e-002 -5.7337685e-002
 -5.3278167e-002 -4.8504088e-002
 -4.8717174e-002 -2.7151273e-002
 -3.3281988e-002  3.6042014e-003
 -1.2661730e-002  3.0747093e-002
  2.0569922e-003  3.9074341e-002
  2.3608119e-003  2.2011728e-002
 -1.1609154e-002 -1.2775314e-002
 -3.1822568e-002 -4.8056613e-002
 -4.9245775e-002 -6.9171431e-002
 -6.1014213e-002 -7.4242405e-002
 -7.1664728e-002 -7.4150894e-002
 -8.7169131e-002 -8.1716272e-002
 -1.0691763e-001 -9.8742402e-002
 -1.2152300e-001 -1.1250075e-001
 -1.1983774e-001 -1.0624878e-001
 -1.0053695e-001 -7.6525500e-002
 -7.7960456e-002 -4.2210807e-002
 -7.4657837e-002 -3.4315967e-002
 -1.0286554e-001 -6.9717802e-002
 -1.4749743e-001 -1.2678249e-001
 -1.6545387e-001 -1.4396776e-001
 -1.0670878e-001 -4.9543229e-002
  5.2342336e-002  1.9092888e-001
  2.8410317e-001  5.3869658e-001
  5.1212635e-001  8.8412959e-001
  6.4372700e-001  1.0922569e+000
  6.1672688e-001  1.0694307e+000
  4.3350613e-001  8.1347446e-001
  1.6185329e-001  4.1740094e-001
 -9.8602463e-002  2.3834044e-002
 -2.6513422e-001 -2.4396885e-001
 -3.0826774e-001 -3.3560036e-001
 -2.5674834e-001 -2.8386555e-001
 -1.7178476e-001 -1.7135862e-001
 -1.0911747e-001 -7.7924474e-002
 -9.2150345e-002 -4.1440856e-002
 -1.0928704e-001 -5.1423975e-002
 -1.3205953e-001 -7.2062137e-002
 -1.3838732e-001 -7.3894087e-002
 -1.2540685e-001 -5.2273203e-002
 -1.0594466e-001 -2.3724980e-002
 -9.4908079e-002 -7.9750323e-003
 -9.7408163e-002 -1.1675585e-002
 -1.0669441e-001 -2.5326578e-002
 -1.1145505e-001 -3.3179776e-002
 -1.0522717e-001 -2.6314226e-002
 -9.0402362e-002 -8.3231733e-003
 -7.4799769e-002  9.5458202e-003
 -6.4711538e-002  1.8491282e-002
 -6.0387003e-002  1.8823474e-002
 -5.7079102e-002  1.8462648e-002
 -4.9738282e-002  2.5707106e-002
 -3.7007220e-002  4.2673674e-002
 -2.1326803e-002  6.4571661e-002
 -5.8021185e-003  8.4539404e-002
  8.9085238e-003  9.9390190e-002
  2.4849318e-002  1.1147366e-001
  4.4261149e-002  1.2576728e-001
  6.6952459e-002  1.4531223e-001
  9.0049773e-002  1.6904567e-001
  1.1047742e-001  1.9361674e-001
  1.2768282e-001  2.1691141e-001
  1.4410706e-001  2.3989209e-001
  1.6270836e-001  2.6501864e-001
  1.8385482e-001  2.9304858e-001
  2.0440082e-001  3.2144007e-001
  2.1998803e-001  3.4601494e-001
  2.2868649e-001  3.6447070e-001
  2.3271536e-001  3.7836878e-001
  2.3638143e-001  3.9132820e-001
  2.4168015e-001  4.0468024e-001
  2.4521239e-001  4.1431707e-001
  2.3938574e-001  4.1200015e-001
  2.1750318e-001  3.9075933e-001
  1.7905484e-001  3.5048316e-001
  1.3108561e-001  2.9914499e-001
  8.4330118e-002  2.4831534e-001
  4.6787840e-002  2.0603995e-001
  1.9402910e-002  1.7231363e-001
 -2.9735635e-003  1.4066363e-001
 -2.6389485e-002  1.0446978e-001
 -5.2459555e-002  6.3067102e-002
 -7.6963773e-002  2.3020073e-002
 -9.3417006e-002 -6.5574640e-003
 -9.8518924e-002 -2.0773830e-002
 -9.5102231e-002 -2.2575309e-002
 -9.0326622e-002 -2.0549946e-002
 -9.0518103e-002 -2.2611849e-002
 -9.6794146e-002 -3.0610095e-002
 -1.0477677e-001 -3.9853847e-002
 -1.0837183e-001 -4.3578702e-002
 -1.0461098e-001 -3.8647689e-002
 -9.5748598e-002 -2.8052884e-002
 -8.7255957e-002 -1.8518559e-002
 -8.3591767e-002 -1.5429897e-002
 -8.5227732e-002 -1.9226689e-002
 -8.9126368e-002 -2.5897601e-002
 -9.1758396e-002 -3.0655192e-002
 -9.2085391e-002 -3.1626194e-002
 -9.1893699e-002 -3.0587113e-002
 -9.3534916e-002 -3.0554114e-002
 -9.7282647e-002 -3.2738349e-002
 -1.0069772e-001 -3.5556914e-002
 -1.0071650e-001 -3.6550611e-002
 -9.6481541e-002 -3.5160108e-002
 -9.0411537e-002 -3.3723975e-002
 -8.6483474e-002 -3.5581659e-002
 -8.7075465e-002 -4.1933343e-002
 -9.1046717e-002 -5.0272575e-002
 -9.4726210e-002 -5.5971710e-002
 -9.4993696e-002 -5.5945172e-002
 -9.1952349e-002 -5.1407020e-002
 -8.8889599e-002 -4.7334050e-002
 -8.9488135e-002 -4.8868225e-002
 -9.4671437e-002 -5.7547224e-002
 -1.0162754e-001 -7.0181288e-002
 -1.0587572e-001 -8.1255682e-002
 -1.0472198e-001 -8.6872973e-002
 -9.9257033e-002 -8.7087808e-002
 -9.3401448e-002 -8.5101673e-002
 -9.0864483e-002 -8.4305269e-002
 -9.2546816e-002 -8.5866438e-002
 -9.6360525e-002 -8.8714669e-002
 -9.9406593e-002 -9.1550025e-002
 -1.0042433e-001 -9.4612154e-002
 -1.0034454e-001 -9.9379368e-002
 -1.0070154e-001 -1.0644158e-001
 -1.0149716e-001 -1.1374049e-001
 -1.0083001e-001 -1.1734194e-001
 -9.6751616e-002 -1.1454865e-001
 -8.9725090e-002 -1.0681938e-001
 -8.3284706e-002 -9.9666614e-002
 -8.1816184e-002 -9.8975551e-002
 -8.7003416e-002 -1.0636737e-001
 -9.5954538e-002 -1.1741122e-001
 -1.0278697e-001 -1.2452727e-001
 -1.0288150e-001 -1.2267800e-001
 -9.6377863e-002 -1.1343982e-001
 -8.8116936e-002 -1.0407390e-001
 -8.3865620e-002 -1.0208683e-001
 -8.5793448e-002 -1.0950456e-001
 -9.0925473e-002 -1.2145957e-001
 -9.3864836e-002 -1.3025238e-001
 -9.1532188e-002 -1.3158529e-001
 -8.5910429e-002 -1.2778240e-001
 -8.2246159e-002 -1.2523451e-001
 -8.4168464e-002 -1.2827338e-001
 -8.9867584e-002 -1.3470751e-001
 -9.2925399e-002 -1.3715123e-001
 -8.7472240e-002 -1.2931308e-001
 -7.3509516e-002 -1.1190915e-001
 -5.7751207e-002 -9.2933712e-002
 -4.8669073e-002 -8.1432554e-002
 -4.9375494e-002 -7.9680807e-002
 -5.4351992e-002 -8.0649967e-002
 -5.3222424e-002 -7.3657566e-002
 -3.9175541e-002 -5.4222323e-002
 -1.5442219e-002 -2.9972337e-002
  5.7633985e-003 -1.6873593e-002
  1.1639437e-002 -2.7644025e-002
 -1.6305130e-003 -6.1082730e-002
 -2.5846582e-002 -1.0134204e-001
 -4.6954280e-002 -1.2863621e-001
 -5.5949444e-002 -1.3385550e-001
 -5.5559732e-002 -1.2541659e-001
 -5.6944890e-002 -1.2204872e-001
 -6.8878397e-002 -1.3648596e-001
 -8.8492142e-002 -1.6340432e-001
 -1.0210711e-001 -1.8224538e-001
 -9.6987297e-002 -1.7468046e-001
 -7.4762480e-002 -1.4294018e-001
 -5.4224445e-002 -1.1274271e-001
 -5.8109922e-002 -1.1442595e-001
 -9.1207202e-002 -1.5325645e-001
 -1.2653800e-001 -1.9153931e-001
 -1.1337040e-001 -1.6042591e-001
 -6.8683634e-003 -2.2133115e-004
  1.9731711e-001  2.9338655e-001
  4.4694325e-001  6.4826987e-001
  6.4998756e-001  9.3855169e-001
  7.1847110e-001  1.0430310e+000
  6.1515462e-001  9.0767013e-001
  3.7528056e-001  5.7576068e-001
  8.9750886e-002  1.6759685e-001
 -1.4077781e-001 -1.7873074e-001
 -2.5410203e-001 -3.7148203e-001
 -2.4994612e-001 -3.9920926e-001
 -1.7804635e-001 -3.1952153e-001
 -1.0191324e-001 -2.1499258e-001
 -6.2608216e-002 -1.4599434e-001
 -6.3330801e-002 -1.2722590e-001
 -7.9899544e-002 -1.3619600e-001
 -8.5308382e-002 -1.4113129e-001
 -6.9615252e-002 -1.2618633e-001
 -4.3104009e-002 -9.8406915e-002
 -2.4031776e-002 -7.6279780e-002
 -2.2859942e-002 -7.2257471e-002
 -3.5048117e-002 -8.3401487e-002
 -4.6500342e-002 -9.5716769e-002
 -4.5490664e-002 -9.6403764e-002
 -3.1145580e-002 -8.3435275e-002
 -1.2350491e-002 -6.5348699e-002
  8.0720140e-004 -5.2776808e-002
  5.4583403e-003 -4.9443188e-002
  7.5648966e-003 -4.9857371e-002
  1.6078386e-002 -4.4833594e-002
  3.4977184e-002 -2.9627069e-002
  5.9758824e-002 -7.9428325e-003
  8.0981216e-002  1.1166025e-002
  9.1775788e-002  2.0637193e-002
  9.3220887e-002  2.0946850e-002
  9.3589979e-002  1.9787191e-002
  1.0233135e-001  2.6475034e-002
  1.2360008e-001  4.5692008e-002
  1.5409486e-001  7.5183394e-002
  1.8625220e-001  1.0847852e-001
  2.1388367e-001  1.3998317e-001
  2.3580555e-001  1.6825036e-001
  2.5507735e-001  1.9523478e-001
  2.7516077e-001  2.2296418e-001
  2.9639079e-001  2.5067937e-001
  3.1554126e-001  2.7490755e-001
  3.2834572e-001  2.9206927e-001
  3.3250262e-001  3.0108002e-001
  3.2863840e-001  3.0360038e-001
  3.1872131e-001  3.0176565e-001
  3.0363442e-001  2.9544180e-001
  2.8227547e-001  2.8155205e-001
  2.5306548e-001  2.5631669e-001
  2.1646484e-001  2.1872156e-001
  1.7620778e-001  1.7246394e-001
  1.3784995e-001  1.2466199e-001
  1.0568543e-001  8.2144021e-002
  8.0308483e-002  4.7857503e-002
  5.8917753e-002  2.0004250e-002
  3.7998071e-002 -5.7026121e-003
  1.6483566e-002 -3.2302015e-002
 -3.1742574e-003 -5.9196494e-002
 -1.6803712e-002 -8.2625667e-002
 -2.1852736e-002 -9.8536027e-002
 -1.9647039e-002 -1.0558027e-001
 -1.4863556e-002 -1.0612992e-001
 -1.2628454e-002 -1.0467563e-001
 -1.5336437e-002 -1.0492515e-001
 -2.1493042e-002 -1.0768630e-001
 -2.7213251e-002 -1.1092874e-001
 -2.9141347e-002 -1.1178364e-001
 -2.6689326e-002 -1.0898126e-001
 -2.2047151e-002 -1.0393203e-001
 -1.8255224e-002 -9.9763885e-002
 -1.6941244e-002 -9.9119131e-002
 -1.7390571e-002 -1.0225491e-001
 -1.7511348e-002 -1.0686270e-001
 -1.5794742e-002 -1.0967246e-001
 -1.2689956e-002 -1.0877996e-001
 -1.0342825e-002 -1.0498115e-001
 -1.1078339e-002 -1.0131683e-001
 -1.5669053e-002 -1.0104763e-001
 -2.2706310e-002 -1.0544893e-001
 -2.9373778e-002 -1.1289890e-001
 -3.3202307e-002 -1.1998282e-001
 -3.3449708e-002 -1.2379174e-001
 -3.1397533e-002 -1.2390560e-001
 -2.9415206e-002 -1.2255356e-001
 -2.9567615e-002 -1.2293936e-001
 -3.2540812e-002 -1.2677810e-001
 -3.7481386e-002 -1.3291871e-001
 -4.2646883e-002 -1.3802146e-001
 -4.6467671e-002 -1.3895021e-001
 -4.8220894e-002 -1.3508195e-001
 -4.8221797e-002 -1.2898272e-001
 -4.7450181e-002 -1.2481776e-001
 -4.7028799e-002 -1.2564334e-001
 -4.7756920e-002 -1.3147875e-001
 -4.9885819e-002 -1.3945645e-001
 -5.3144909e-002 -1.4587946e-001
 -5.6826868e-002 -1.4855990e-001
 -5.9997191e-002 -1.4784190e-001
 -6.1842857e-002 -1.4576904e-001
 -6.2112180e-002 -1.4426065e-001
 -6.1444303e-002 -1.4382591e-001
 -6.1228141e-002 -1.4371157e-001
 -6.2895942e-002 -1.4302825e-001
 -6.6867998e-002 -1.4168746e-001
 -7.1843864e-002 -1.4029387e-001
 -7.5150460e-002 -1.3925582e-001
 -7.4291247e-002 -1.3823941e-001
 -6.8799440e-002 -1.3661620e-001
 -6.1203999e-002 -1.3466432e-001
 -5.6002220e-002 -1.3409912e-001
 -5.6974857e-002 -1.3707439e-001
 -6.4467124e-002 -1.4405813e-001
 -7.4606856e-002 -1.5247907e-001
 -8.1415634e-002 -1.5771557e-001
 -8.0647488e-002 -1.5623204e-001
 -7.2767120e-002 -1.4853665e-001
 -6.2774880e-002 -1.3928579e-001
 -5.6576623e-002 -1.3368795e-001
 -5.6375364e-002 -1.3264709e-001
 -5.8519650e-002 -1.3067164e-001
 -5.5859483e-002 -1.1921288e-001
 -4.3206216e-002 -9.3707752e-002
 -2.2134345e-002 -5.9342234e-002
 -1.1619883e-003 -3.0327184e-002
  9.3394967e-003 -2.1914573e-002
  4.1176114e-003 -4.0074722e-002
 -1.3167442e-002 -7.6372489e-002
 -3.2502981e-002 -1.1257773e-001
 -4.4847026e-002 -1.3262707e-001
 -4.8789233e-002 -1.3351735e-001
 -5.1087905e-002 -1.2671078e-001
 -6.0352472e-002 -1.2843306e-001
 -7.8637495e-002 -1.4588295e-001
 -9.8035869e-002 -1.7039603e-001
 -1.0611465e-001 -1.8399620e-001
 -9.6903460e-002 -1.7529017e-001
 -7.8646381e-002 -1.5204756e-001
 -7.0493149e-002 -1.3845025e-001
 -8.7808733e-002 -1.5547747e-001
 -1.2533781e-001 -1.9689917e-001
 -1.5135968e-001 -2.1974106e-001
 -1.2073305e-001 -1.6129504e-001
 -2.2148038e-003  2.2855174e-002
  1.9555862e-001  3.2143604e-001
  4.1729672e-001  6.5624377e-001
  5.8117616e-001  9.0902916e-001
  6.1734856e-001  9.7568626e-001
  5.0384757e-001  8.1869977e-001
  2.7921128e-001  4.8798853e-001
  2.4084355e-002  9.7901388e-002
 -1.7783977e-001 -2.2684205e-001
 -2.7754237e-001 -4.0615197e-001
 -2.7693181e-001 -4.3174327e-001
 -2.1733082e-001 -3.5560219e-001
 -1.5034252e-001 -2.5166891e-001
 -1.1000133e-001 -1.7578836e-001
 -1.0146118e-001 -1.4564326e-001
 -1.0894797e-001 -1.4678786e-001
 -1.1358156e-001 -1.5426301e-001
 -1.0742086e-001 -1.5251377e-001
 -9.5522787e-002 -1.4169614e-001
 -8.7661176e-002 -1.3053503e-001
 -8.8335678e-002 -1.2506525e-001
 -9.3242221e-002 -1.2319999e-001
 -9.3926015e-002 -1.1816030e-001
 -8.5669015e-002 -1.0605265e-001
 -7.1542010e-002 -9.0030949e-002
 -5.9516356e-002 -7.7493964e-002
 -5.5434325e-002 -7.3122875e-002
 -5.7864341e-002 -7.4081397e-002
 -5.9138358e-002 -7.1768256e-002
 -5.1568664e-002 -5.8678125e-002
 -3.3677075e-002 -3.4713790e-002
 -1.1453520e-002 -7.7279490e-003
  6.3675156e-003  1.2308348e-002
  1.5193969e-002  2.0969042e-002
  1.8221208e-002  2.2875001e-002
  2.4021456e-002  2.8391202e-002
  4.0130683e-002  4.6129655e-002
  6.7467715e-002  7.6941233e-002
  9.9844517e-002  1.1383739e-001
  1.2853399e-001  1.4742841e-001
  1.4829073e-001  1.7257363e-001
  1.6030943e-001  1.9126243e-001
  1.7022210e-001  2.0994657e-001
  1.8319786e-001  2.3390533e-001
  2.0003758e-001  2.6313817e-001
  2.1714822e-001  2.9275444e-001
  2.2971690e-001  3.1687789e-001
  2.3519451e-001  3.3257881e-001
  2.3413469e-001  3.4060505e-001
  2.2801861e-001  3.4264955e-001
  2.1634697e-001  3.3790263e-001
  1.9597876e-001  3.2226734e-001
  1.6364090e-001  2.9129028e-001
  1.1966700e-001  2.4457194e-001
  6.9775927e-002  1.8804523e-001
  2.3059429e-002  1.3195625e-001
 -1.2839595e-002  8.5535015e-002
 -3.5898581e-002  5.2150663e-002
 -5.0292712e-002  2.8277430e-002
 -6.2858503e-002  7.0513604e-003
 -7.8118613e-002 -1.6375361e-002
 -9.5442930e-002 -4.1471589e-002
 -1.1023657e-001 -6.3275842e-002
 -1.1801592e-001 -7.6637887e-002
 -1.1802338e-001 -8.0302905e-002
 -1.1381856e-001 -7.7917459e-002
 -1.1054478e-001 -7.5308656e-002
 -1.1117513e-001 -7.6290018e-002
 -1.1479731e-001 -8.0350052e-002
 -1.1809797e-001 -8.3818428e-002
 -1.1865445e-001 -8.3426717e-002
 -1.1711681e-001 -7.9219497e-002
 -1.1650713e-001 -7.4478326e-002
 -1.1921020e-001 -7.2749621e-002
 -1.2429654e-001 -7.4462309e-002
 -1.2759758e-001 -7.6025289e-002
 -1.2481482e-001 -7.2466639e-002
 -1.1529921e-001 -6.1661425e-002
 -1.0345948e-001 -4.6921966e-002
 -9.6303924e-002 -3.5572090e-002
 -9.8638724e-002 -3.4204093e-002
 -1.0945423e-001 -4.3920241e-002
 -1.2228069e-001 -5.9103076e-002
 -1.2945472e-001 -7.0858360e-002
 -1.2738229e-001 -7.2887062e-002
 -1.1893968e-001 -6.5656209e-002
 -1.1125288e-001 -5.5809687e-002
 -1.1040102e-001 -5.1193399e-002
 -1.1698869e-001 -5.5131041e-002
 -1.2584341e-001 -6.4118179e-002
 -1.3011023e-001 -7.0699963e-002
 -1.2655439e-001 -6.9284087e-002
 -1.1811976e-001 -6.0581143e-002
 -1.1164768e-001 -5.1119150e-002
 -1.1253560e-001 -4.8227467e-002
 -1.2036827e-001 -5.4284639e-002
 -1.2893794e-001 -6.4719840e-002
 -1.3090032e-001 -7.1541855e-002
 -1.2355358e-001 -6.9791507e-002
 -1.1134940e-001 -6.1827463e-002
 -1.0293972e-001 -5.5871027e-002
 -1.0479070e-001 -5.9589077e-002
 -1.1613051e-001 -7.3560686e-002
 -1.2913046e-001 -8.9900364e-002
 -1.3447282e-001 -9.7619741e-002
 -1.2830064e-001 -9.0982127e-002
 -1.1527002e-001 -7.4427821e-002
 -1.0527693e-001 -5.9913517e-002
 -1.0607760e-001 -5.8164501e-002
 -1.1730705e-001 -7.0263498e-002
 -1.3041167e-001 -8.6030681e-002
 -1.3482766e-001 -9.0909603e-002
 -1.2579584e-001 -7.6462545e-002
 -1.0791730e-001 -4.6464872e-002
 -9.1707092e-002 -1.3827267e-002
 -8.5581095e-002  9.3418639e-003
 -8.9394357e-002  2.0941593e-002
 -9.4679381e-002  2.9737627e-002
 -9.1443271e-002  4.7017409e-002
 -7.6361458e-002  7.5591040e-002
 -5.5869478e-002  1.0520222e-001
 -4.1552822e-002  1.1898538e-001
 -4.1341315e-002  1.0643919e-001
 -5.3425979e-002  7.2842046e-002
 -6.7967140e-002  3.6918665e-002
 -7.5502580e-002  1.7506191e-002
 -7.5181193e-002  1.9274471e-002
 -7.5807243e-002  2.9084423e-002
 -8.7973109e-002  2.6996875e-002
 -1.1337297e-001  3.9582007e-003
 -1.4039967e-001 -2.8261218e-002
 -1.5124060e-001 -4.4618804e-002
 -1.3634317e-001 -2.7759854e-002
 -1.0511052e-001  1.3768756e-002
 -8.2585504e-002  4.6859583e-002
 -9.1386590e-002  3.8332377e-002
 -1.3020257e-001 -1.2541539e-002
 -1.6526098e-001 -5.8362354e-002
 -1.4468620e-001 -2.1915180e-002
 -3.0454877e-002  1.5679487e-001
  1.7098722e-001  4.7224925e-001
  4.0054766e-001  8.3697321e-001
  5.6965129e-001  1.1133557e+000
  6.0404870e-001  1.1802092e+000
  4.8349437e-001  9.9699971e-001
  2.5361637e-001  6.2766750e-001
  2.5510434e-003  2.0915192e-001
 -1.8392921e-001 -1.1722753e-001
 -2.6261001e-001 -2.7176231e-001
 -2.4615719e-001 -2.6336665e-001
 -1.8499679e-001 -1.6681826e-001
 -1.3221322e-001 -6.9620842e-002
 -1.1443205e-001 -2.3515725e-002
 -1.2487395e-001 -2.7859639e-002
 -1.3855911e-001 -4.8254609e-002
 -1.3543589e-001 -5.1090278e-002
 -1.1448144e-001 -2.8068742e-002
 -9.0766737e-002  3.6543261e-003
 -8.0673747e-002  2.0719587e-002
 -8.8171765e-002  1.4183389e-002
 -1.0246193e-001 -4.5489046e-003
 -1.0753566e-001 -1.4903171e-002
 -9.4960977e-002 -4.5408094e-003
 -6.9789594e-002  2.1532046e-002
 -4.5577587e-002  4.6480670e-002
 -3.3277594e-002  5.6125379e-002
 -3.3177897e-002  4.9997753e-002
 -3.5854121e-002  4.0474541e-002
 -3.0557422e-002  4.1681952e-002
 -1.3915252e-002  5.7875642e-002
  7.9927751e-003  8.0720980e-002
  2.5398850e-002  9.7151024e-002
  3.3356519e-002  1.0087370e-001
  3.5869419e-002  9.7757924e-002
  4.2545907e-002  1.0100691e-001
  6.0695977e-002  1.2028877e-001
  8.9418338e-002  1.5388262e-001
  1.2034826e-001  1.9007196e-001
  1.4429209e-001  2.1647032e-001
  1.5831873e-001  2.2959734e-001
  1.6771360e-001  2.3713442e-001
  1.8136105e-001  2.5129372e-001
  2.0437229e-001  2.7885401e-001
  2.3371426e-001  3.1572052e-001
  2.6008559e-001  3.4996625e-001
  2.7422124e-001  3.7042813e-001
  2.7265184e-001  3.7384079e-001
  2.5868599e-001  3.6515673e-001
  2.3856161e-001  3.5161577e-001
  2.1620910e-001  3.3589290e-001
  1.9107642e-001  3.1426150e-001
  1.6033580e-001  2.8088027e-001
  1.2306331e-001  2.3417020e-001
  8.2585225e-002  1.7974814e-001
  4.4860338e-002  1.2728877e-001
  1.4416299e-002  8.4078370e-002
 -8.5884025e-003  5.0641735e-002
 -2.7615831e-002  2.2005453e-002
 -4.6050579e-002 -6.7807263e-003
 -6.3825582e-002 -3.5766395e-002
 -7.7411197e-002 -6.0062304e-002
 -8.3252771e-002 -7.4580695e-002
 -8.1640242e-002 -7.9208191e-002
 -7.7431523e-002 -7.9691327e-002
 -7.6743086e-002 -8.3229230e-002
 -8.2079250e-002 -9.2387756e-002
 -9.0067335e-002 -1.0276396e-001
 -9.3930588e-002 -1.0663842e-001
 -8.9018585e-002 -9.9860588e-002
 -7.7027888e-002 -8.6221328e-002
 -6.5372575e-002 -7.5345749e-002
 -6.1831695e-002 -7.5400427e-002
 -6.8565215e-002 -8.6401333e-002
 -8.0250961e-002 -9.9730063e-002
 -8.7888133e-002 -1.0453463e-001
 -8.5540845e-002 -9.6177108e-002
 -7.4773479e-002 -8.0015372e-002
 -6.3402282e-002 -6.7368737e-002
 -5.9497964e-002 -6.6752009e-002
 -6.5394771e-002 -7.7398293e-002
 -7.6162868e-002 -9.0057011e-002
 -8.3807539e-002 -9.4603936e-002
 -8.3582721e-002 -8.8142003e-002
 -7.7450832e-002 -7.7113943e-002
 -7.2011506e-002 -7.1704003e-002
 -7.2807014e-002 -7.7179966e-002
 -7.9656702e-002 -8.9239288e-002
 -8.6871657e-002 -9.7271326e-002
 -8.8148995e-002 -9.2997448e-002
 -8.2086615e-002 -7.7402900e-002
 -7.3774811e-002 -6.0331448e-002
 -7.0980935e-002 -5.2900126e-002
 -7.8034221e-002 -5.8962078e-002
 -9.2119193e-002 -7.2311714e-002
 -1.0510193e-001 -8.1951232e-002
 -1.0941632e-001 -8.0995535e-002
 -1.0346195e-001 -7.1867499e-002
 -9.2489242e-002 -6.3718013e-002
 -8.4393075e-002 -6.4284584e-002
 -8.3803490e-002 -7.3012093e-002
 -8.9071948e-002 -8.1331784e-002
 -9.4203452e-002 -7.9872372e-002
 -9.3878664e-002 -6.6615986e-002
 -8.7461963e-002 -4.9129731e-002
 -7.9008418e-002 -3.8933202e-002
 -7.3714585e-002 -4.2463026e-002
 -7.3992405e-002 -5.6128016e-002
 -7.8244794e-002 -6.9415659e-002
 -8.2830985e-002 -7.3235931e-002
 -8.4969695e-002 -6.6339256e-002
 -8.3921814e-002 -5.4514208e-002
 -7.9691559e-002 -4.3504286e-002
 -7.1288360e-002 -3.2444369e-002
 -5.7006228e-002 -1.4549687e-002
 -3.7052313e-002  1.4895714e-002
 -1.6123690e-002  5.0028495e-002
 -2.7471851e-003  7.3904145e-002
 -4.4542470e-003  6.8602926e-002
 -2.1916796e-002  2.9206494e-002
 -4.6981606e-002 -2.9579875e-002
 -6.7243805e-002 -8.0984304e-002
 -7.4524734e-002 -1.0369844e-001
 -7.0923207e-002 -9.6550342e-002
 -6.7119069e-002 -7.8566494e-002
 -7.3393649e-002 -7.3410050e-002
 -9.0195749e-002 -8.9968610e-002
 -1.0640614e-001 -1.1498554e-001
 -1.0803179e-001 -1.2484914e-001
 -9.1372666e-002 -1.0800500e-001
 -6.9531562e-002 -7.8928506e-002
 -6.4630443e-002 -6.9170866e-002
 -8.8666785e-002 -9.8336361e-002
 -1.2633725e-001 -1.4585966e-001
 -1.3484907e-001 -1.4855247e-001
 -6.5854373e-002 -3.3434665e-002
  1.0116785e-001  2.3023806e-001
  3.3521434e-001  5.9343657e-001
  5.5803581e-001  9.3376513e-001
  6.7838243e-001  1.1092343e+000
  6.3872999e-001  1.0316451e+000
  4.4747817e-001  7.1660227e-001
  1.7676513e-001  2.7914865e-001
 -7.3627182e-002 -1.2366541e-001
 -2.2546307e-001 -3.6979317e-001
 -2.5632910e-001 -4.2476689e-001
 -2.0097957e-001 -3.4247938e-001
 -1.2251594e-001 -2.1967224e-001
 -7.3524529e-002 -1.3633227e-001
 -7.0918488e-002 -1.1851669e-001
 -9.6804773e-002 -1.4116272e-001
 -1.1979635e-001 -1.6082857e-001
 -1.1948431e-001 -1.5125670e-001
 -9.7724571e-002 -1.1782629e-001
 -7.2031891e-002 -8.5664152e-002
 -5.9267244e-002 -7.5436560e-002
 -6.2988394e-002 -8.7067596e-002
 -7.3040025e-002 -1.0247540e-001
 -7.5643372e-002 -1.0236212e-001
 -6.4830791e-002 -8.2095023e-002
 -4.6238658e-002 -5.4108065e-002
 -3.1385354e-002 -3.6341330e-002
 -2.7836852e-002 -3.7056978e-002
 -3.3393701e-002 -4.8527892e-002
 -3.8399463e-002 -5.4023400e-002
 -3.3541954e-002 -4.1533018e-002
 -1.6768099e-002 -1.3068717e-002
  5.9561130e-003  1.7504989e-002
  2.6078602e-002  3.5935336e-002
  3.9304163e-002  3.8761278e-002
  4.8426895e-002  3.5695146e-002
  6.0482713e-002  4.1855322e-002
  8.0817919e-002  6.6361394e-002
  1.0897482e-001  1.0612838e-001
  1.3928736e-001  1.4902970e-001
  1.6533205e-001  1.8326270e-001
  1.8448648e-001  2.0537502e-001
  1.9912736e-001  2.2115485e-001
  2.1388828e-001  2.3953571e-001
  2.3145561e-001  2.6494803e-001
  2.5018259e-001  2.9407631e-001
  2.6508377e-001  3.1885199e-001
  2.7105503e-001  3.3250807e-001
  2.6577090e-001  3.3365375e-001
  2.5035455e-001  3.2552688e-001
  2.2786427e-001  3.1186899e-001
  2.0115818e-001  2.9341096e-001
  1.7175898e-001  2.6791745e-001
  1.4020330e-001  2.3334313e-001
  1.0701630e-001  1.9097406e-001
  7.3305665e-002  1.4566909e-001
  4.0638297e-002  1.0304365e-001
  1.0570538e-002  6.6075781e-002
 -1.5542305e-002  3.4074368e-002
 -3.6424944e-002  4.7437658e-003
 -5.1049452e-002 -2.2721345e-002
 -5.9257651e-002 -4.6324300e-002
 -6.2503293e-002 -6.2933833e-002
 -6.3843786e-002 -7.1430873e-002
 -6.6566269e-002 -7.4368233e-002
 -7.2178076e-002 -7.6538813e-002
 -7.9124260e-002 -8.1389488e-002
 -8.3611107e-002 -8.8303661e-002
 -8.2241927e-002 -9.3076595e-002
 -7.4749253e-002 -9.1390421e-002
 -6.4650782e-002 -8.2592191e-002
 -5.7150402e-002 -7.0775074e-002
 -5.5609901e-002 -6.2216706e-002
 -5.9287041e-002 -6.1258975e-002
 -6.4010570e-002 -6.7595890e-002
 -6.5501926e-002 -7.6991831e-002
 -6.2710090e-002 -8.4457636e-002
 -5.8624836e-002 -8.7395884e-002
 -5.7864488e-002 -8.6404325e-002
 -6.2872107e-002 -8.3576330e-002
 -7.1720493e-002 -8.0196490e-002
 -7.9278718e-002 -7.5865448e-002
 -8.0933085e-002 -6.9683641e-002
 -7.5960122e-002 -6.1995362e-002
 -6.8153953e-002 -5.5005576e-002
 -6.3071078e-002 -5.1409064e-002
 -6.4168424e-002 -5.2212632e-002
 -7.0753973e-002 -5.5790292e-002
 -7.8995967e-002 -5.8952528e-002
 -8.5067075e-002 -5.9327794e-002
 -8.7755739e-002 -5.7029289e-002
 -8.8607477e-002 -5.4258139e-002
 -8.9872358e-002 -5.3317742e-002
 -9.2191895e-002 -5.4722856e-002
 -9.4066364e-002 -5.6987352e-002
 -9.3513047e-002 -5.8114941e-002
 -9.0265841e-002 -5.7342076e-002
 -8.6459806e-002 -5.5498602e-002
 -8.5071517e-002 -5.3797253e-002
 -8.7442117e-002 -5.2380740e-002
 -9.1973204e-002 -5.0105956e-002
 -9.5188191e-002 -4.5846259e-002
 -9.4414039e-002 -4.0099071e-002
 -8.9839556e-002 -3.5094778e-002
 -8.4324228e-002 -3.3050603e-002
 -8.1220388e-002 -3.4158766e-002
 -8.2032902e-002 -3.6233359e-002
 -8.5816038e-002 -3.6714966e-002
 -9.0421608e-002 -3.5194708e-002
 -9.4184278e-002 -3.3842286e-002
 -9.6366506e-002 -3.4707312e-002
 -9.6022656e-002 -3.5951357e-002
 -9.0939096e-002 -3.0888028e-002
 -7.8384087e-002 -1.2108209e-002
 -5.7793635e-002  2.1318456e-002
 -3.3268502e-002  5.9262501e-002
 -1.3123694e-002  8.3554525e-002
 -5.6033223e-003  7.8484049e-002
 -1.3433591e-002  4.2140672e-002
 -3.1391795e-002 -1.0040701e-002
 -4.9531831e-002 -5.3687600e-002
 -6.0333632e-002 -7.1224669e-002
 -6.4390826e-002 -6.3905068e-002
 -6.9704111e-002 -5.0685897e-002
 -8.4277588e-002 -5.3513794e-002
 -1.0761526e-001 -7.9484194e-002
 -1.2853889e-001 -1.1400026e-001
 -1.3264074e-001 -1.3150167e-001
 -1.1481319e-001 -1.1688995e-001
 -8.6775020e-002 -8.0721187e-002
 -7.1345024e-002 -5.3760444e-002
 -8.4584159e-002 -6.1244864e-002
 -1.1739307e-001 -9.4073368e-002
 -1.3143170e-001 -1.0039418e-001
 -7.6838732e-002 -9.9565943e-003
  7.5528029e-002  2.1880603e-001
  3.0671052e-001  5.5785257e-001
  5.4674992e-001  9.0445110e-001
  7.0257784e-001  1.1219378e+000
  7.0380826e-001  1.1073953e+000
  5.4076632e-001  8.4814608e-001
  2.7203787e-001  4.3301158e-001
 -3.8504510e-003  1.0249768e-002
 -1.9680547e-001 -2.8447827e-001
 -2.6615401e-001 -3.8939435e-001
 -2.3213356e-001 -3.3425277e-001
 -1.5427947e-001 -2.0881370e-001
 -9.2726766e-002 -1.0548216e-001
 -7.6689647e-002 -7.1831735e-002
 -9.7065528e-002 -9.8193779e-002
 -1.2316936e-001 -1.4086370e-001
 -1.2877390e-001 -1.5976625e-001
 -1.0914054e-001 -1.4411164e-001
 -7.9756884e-002 -1.1226485e-001
 -6.0977078e-002 -9.1288321e-002
 -6.1910535e-002 -9.4555923e-002
 -7.5116955e-002 -1.1373653e-001
 -8.4404210e-002 -1.2855928e-001
 -7.8165283e-002 -1.2425661e-001
 -5.7735690e-002 -1.0244206e-001
 -3.5086901e-002 -7.8048962e-002
 -2.2697024e-002 -6.6217174e-002
 -2.4002888e-002 -7.0360827e-002
 -3.1483757e-002 -8.0447541e-002
 -3.3112172e-002 -8.1846027e-002
 -2.1607590e-002 -6.7010257e-002
  6.9702253e-004 -4.0698944e-002
  2.4540698e-002 -1.5311220e-002
  4.1321616e-002 -6.8302819e-004
  4.9543011e-002  3.4670941e-003
  5.5405598e-002  6.8721953e-003
  6.7676604e-002  2.0869827e-002
  9.1130543e-002  4.9960557e-002
  1.2338708e-001  8.8969608e-002
  1.5716159e-001  1.2762040e-001
  1.8549031e-001  1.5815482e-001
  2.0587109e-001  1.8014867e-001
  2.2055598e-001  1.9926574e-001
  2.3333741e-001  2.2152221e-001
  2.4589624e-001  2.4803319e-001
  2.5654272e-001  2.7418171e-001
  2.6184820e-001  2.9320971e-001
  2.5931504e-001  3.0085439e-001
  2.4879630e-001  2.9725176e-001
  2.3165535e-001  2.8499675e-001
  2.0886732e-001  2.6563144e-001
  1.8015959e-001  2.3806333e-001
  1.4503063e-001  2.0031905e-001
  1.0477479e-001  1.5313218e-001
  6.3471258e-002  1.0188640e-001
  2.6677653e-002  5.4825202e-002
 -1.4794261e-003  1.8471672e-002
 -2.0618435e-002 -6.2450067e-003
 -3.3982214e-002 -2.4114911e-002
 -4.5790430e-002 -4.1717659e-002
 -5.8100741e-002 -6.2367160e-002
 -6.9644071e-002 -8.3834812e-002
 -7.7413801e-002 -1.0039925e-001
 -7.9749381e-002 -1.0763537e-001
 -7.8298927e-002 -1.0612087e-001
 -7.7146372e-002 -1.0110823e-001
 -7.9659440e-002 -9.8558573e-002
 -8.5559773e-002 -1.0066291e-001
 -9.0742584e-002 -1.0451480e-001
 -9.0260708e-002 -1.0501219e-001
 -8.2333262e-002 -9.9621213e-002
 -7.0330833e-002 -9.1137841e-002
 -6.0992786e-002 -8.6081068e-002
 -5.9917359e-002 -8.9707734e-002
 -6.7589367e-002 -1.0154339e-001
 -7.8834829e-002 -1.1496900e-001
 -8.6298150e-002 -1.2153395e-001
 -8.5488965e-002 -1.1693991e-001
 -7.7754970e-002 -1.0425857e-001
 -6.9093090e-002 -9.1906521e-002
 -6.5631113e-002 -8.7670855e-002
 -6.9224984e-002 -9.3223806e-002
 -7.6272267e-002 -1.0304930e-001
 -8.0587934e-002 -1.0860183e-001
 -7.8186713e-002 -1.0467510e-001
 -7.0299016e-002 -9.3207374e-002
 -6.2525121e-002 -8.1910653e-002
 -6.0769723e-002 -7.8715737e-002
 -6.7055722e-002 -8.6244038e-002
 -7.8222447e-002 -1.0024583e-001
 -8.8356300e-002 -1.1296360e-001
 -9.2963444e-002 -1.1869560e-001
 -9.1734901e-002 -1.1737064e-001
 -8.8060941e-002 -1.1368569e-001
 -8.6004284e-002 -1.1289593e-001
 -8.7260798e-002 -1.1668335e-001
 -9.0435817e-002 -1.2232818e-001
 -9.2897960e-002 -1.2545035e-001
 -9.3361813e-002 -1.2386365e-001
 -9.2795663e-002 -1.1921013e-001
 -9.3044475e-002 -1.1517362e-001
 -9.4511978e-002 -1.1400209e-001
 -9.5285713e-002 -1.1448706e-001
 -9.2768291e-002 -1.1330707e-001
 -8.6670552e-002 -1.0860011e-001
 -8.0465916e-002 -1.0245454e-001
 -7.9589991e-002 -9.9856554e-002
 -8.7203140e-002 -1.0457308e-001
 -1.0073040e-001 -1.1528480e-001
 -1.1237764e-001 -1.2555384e-001
 -1.1394807e-001 -1.2819695e-001
 -1.0276762e-001 -1.2084259e-001
 -8.4229853e-002 -1.0802907e-001
 -6.8511498e-002 -9.7646849e-002
 -6.3410370e-002 -9.4176634e-002
 -6.8486150e-002 -9.4263984e-002
 -7.5063921e-002 -8.8772167e-002
 -7.2566348e-002 -7.0577744e-002
 -5.6621846e-002 -4.2124321e-002
 -3.2942140e-002 -1.6325905e-002
 -1.3728161e-002 -8.8294217e-003
 -9.2202452e-003 -2.6746432e-002
 -2.0630516e-002 -6.2366295e-002
 -3.9953133e-002 -9.7499684e-002
 -5.6740547e-002 -1.1604649e-001
 -6.6332926e-002 -1.1558184e-001
 -7.2716332e-002 -1.0869845e-001
 -8.3451911e-002 -1.1219975e-001
 -1.0086366e-001 -1.3209196e-001
 -1.1758615e-001 -1.5683600e-001
 -1.2126774e-001 -1.6556886e-001
 -1.0599325e-001 -1.4638150e-001
 -8.0960940e-002 -1.1006042e-001
 -6.7350961e-002 -8.5837059e-002
 -8.2352766e-002 -9.8119768e-002
 -1.2032607e-001 -1.3915341e-001
 -1.4598771e-001 -1.5926870e-001
 -1.0890202e-001 -8.7873392e-002
  2.5542272e-002  1.2209493e-001
  2.4667408e-001  4.5238131e-001
  4.9104109e-001  8.0966796e-001
  6.6587397e-001  1.0600653e+000
  6.9366663e-001  1.0933038e+000
  5.5341064e-001  8.8135617e-001
  2.9404142e-001  4.9691011e-001
  1.1374136e-002  7.9554768e-002
 -1.9885987e-001 -2.3191340e-001
 -2.8540960e-001 -3.6304669e-001
 -2.5914292e-001 -3.2874765e-001
 -1.7655656e-001 -2.0954689e-001
 -1.0212004e-001 -9.7882008e-002
 -7.3352459e-002 -4.8389591e-002
 -8.8032457e-002 -5.9701601e-002
 -1.1699374e-001 -9.2473047e-002
 -1.3001573e-001 -1.0567060e-001
 -1.1623922e-001 -8.4945101e-002
 -8.7099429e-002 -4.6340542e-002
 -6.3436212e-002 -1.7933580e-002
 -5.8446275e-002 -1.6271045e-002
 -6.9191826e-002 -3.5348990e-002
 -8.1243099e-002 -5.4109880e-002
 -8.1067758e-002 -5.4341062e-002
 -6.5908609e-002 -3.4158441e-002
 -4.4234386e-002 -7.5413927e-003
 -2.7661591e-002  8.2215634e-003
 -2.1515328e-002  6.3382722e-003
 -2.1345311e-002 -5.0254911e-003
 -1.7392461e-002 -1.0180911e-002
 -2.8035073e-003  1.4314447e-003
  2.1094014e-002  2.7480190e-002
  4.6341500e-002  5.5478894e-002
  6.4845219e-002  7.3013752e-002
  7.4614797e-002  7.7221825e-002
  8.0961824e-002  7.6414700e-002
  9.2084029e-002  8.3133401e-002
  1.1286334e-001  1.0455647e-001
  1.4159675e-001  1.3767597e-001
  1.7176400e-001  1.7237109e-001
  1.9709049e-001  1.9945839e-001
  2.1575143e-001  2.1716344e-001
  2.3069381e-001  2.3134053e-001
  2.4621838e-001  2.4974044e-001
  2.6388380e-001  2.7528813e-001
  2.8085506e-001  3.0348558e-001
  2.9179697e-001  3.2563092e-001
  2.9254874e-001  3.3492195e-001
  2.8261225e-001  3.3051525e-001
  2.6477129e-001  3.1673248e-001
  2.4238475e-001  2.9845460e-001
  2.1681010e-001  2.7674278e-001
  1.8698243e-001  2.4826784e-001
  1.5141009e-001  2.0886876e-001
  1.1084068e-001  1.5831603e-001
  6.9319920e-002  1.0234388e-001
  3.2730089e-002  5.0250899e-002
  5.7574893e-003  9.7852814e-003
 -1.0633098e-002 -1.7095376e-002
 -1.9500653e-002 -3.4587353e-002
 -2.5851524e-002 -4.9457723e-002
 -3.3595128e-002 -6.6190131e-002
 -4.3546603e-002 -8.4263648e-002
 -5.3568245e-002 -9.9252296e-002
 -6.0486835e-002 -1.0659740e-001
 -6.2370768e-002 -1.0523852e-001
 -5.9737446e-002 -9.8553483e-002
 -5.5052685e-002 -9.2142871e-002
 -5.1101556e-002 -9.0267452e-002
 -4.9402997e-002 -9.3408025e-002
 -4.9617765e-002 -9.8531416e-002
 -5.0260424e-002 -1.0158564e-001
 -4.9991102e-002 -1.0034640e-001
 -4.8591642e-002 -9.5640769e-002
 -4.6990515e-002 -9.0308477e-002
 -4.6407008e-002 -8.6909150e-002
 -4.7327648e-002 -8.5956496e-002
 -4.9030895e-002 -8.5843794e-002
 -5.0136228e-002 -8.4435106e-002
 -4.9772390e-002 -8.0992602e-002
 -4.8400737e-002 -7.6838337e-002
 -4.7688151e-002 -7.4346609e-002
 -4.9289225e-002 -7.4957515e-002
 -5.3378226e-002 -7.7784167e-002
 -5.8132710e-002 -8.0087717e-002
 -6.0658914e-002 -7.9299235e-002
 -5.8917447e-002 -7.5180890e-002
 -5.3315318e-002 -7.0375703e-002
 -4.6733095e-002 -6.8736867e-002
 -4.2775078e-002 -7.2525018e-002
 -4.3448125e-002 -8.0514582e-002
 -4.7840586e-002 -8.8555605e-002
 -5.2889334e-002 -9.2444841e-002
 -5.5620549e-002 -9.1045973e-002
 -5.5231730e-002 -8.7273378e-002
 -5.3449561e-002 -8.6044722e-002
 -5.2836445e-002 -9.0519645e-002
 -5.4460141e-002 -9.9428143e-002
 -5.6758605e-002 -1.0760370e-001
 -5.6722908e-002 -1.0963864e-001
 -5.2420888e-002 -1.0394554e-001
 -4.4906453e-002 -9.4164093e-002
 -3.7868369e-002 -8.6699948e-002
 -3.5116462e-002 -8.6083991e-002
 -3.7772365e-002 -9.1651156e-002
 -4.3391555e-002 -9.8162159e-002
 -4.7814871e-002 -9.9995548e-002
 -4.8342424e-002 -9.5672017e-002
 -4.5721130e-002 -8.9102293e-002
 -4.3420236e-002 -8.6511184e-002
 -4.4675188e-002 -9.1288377e-002
 -4.9756943e-002 -1.0094588e-001
 -5.5654851e-002 -1.0869628e-001
 -5.8480349e-002 -1.0864487e-001
 -5.6636207e-002 -1.0050101e-001
 -5.2077145e-002 -8.9974044e-002
 -4.8654478e-002 -8.4444367e-002
 -4.8742261e-002 -8.7119693e-002
 -5.1196851e-002 -9.4538068e-002
 -5.2289130e-002 -9.9308485e-002
 -4.8955300e-002 -9.5988248e-002
 -4.1579204e-002 -8.5156020e-002
 -3.3756363e-002 -7.2280921e-002
 -2.9150303e-002 -6.2377209e-002
 -2.7981069e-002 -5.5105401e-002
 -2.6456658e-002 -4.5039937e-002
 -2.0000582e-002 -2.7460085e-002
 -7.7911146e-003 -4.7990055e-003
  5.2887795e-003  1.2196892e-002
  1.1559499e-002  1.1022288e-002
  6.4122939e-003 -1.2627262e-002
 -7.6135384e-003 -4.9518773e-002
 -2.2215949e-002 -8.1464851e-002
 -2.9745548e-002 -9.3710580e-002
 -2.9672148e-002 -8.6044531e-002
 -2.9449042e-002 -7.3427624e-002
 -3.8217376e-002 -7.4438266e-002
 -5.7981446e-002 -9.5725014e-002
 -7.9831908e-002 -1.2511640e-001
 -8.9660871e-002 -1.4033381e-001
 -8.0168669e-002 -1.2806107e-001
 -5.9634934e-002 -9.8298762e-002
 -4.8514073e-002 -8.0049743e-002
 -6.3328113e-002 -9.7528067e-002
 -9.7944632e-002 -1.4230476e-001
 -1.1728353e-001 -1.6391582e-001
 -7.2307995e-002 -9.1903062e-002
  6.8854264e-002  1.1876207e-001
  2.9219204e-001  4.4615774e-001
  5.3175096e-001  7.9341089e-001
  6.9472688e-001  1.0259217e+000
  7.0670955e-001  1.0372067e+000
  5.5199073e-001  8.0652343e-001
  2.8486526e-001  4.1387707e-001
  3.9453142e-003  1.9915802e-003
 -1.9634578e-001 -2.9374024e-001
 -2.6953048e-001 -4.0733826e-001
 -2.3218010e-001 -3.6270440e-001
 -1.4448758e-001 -2.4496767e-001
 -7.0962676e-002 -1.4448824e-001
 -4.6148438e-002 -1.0903731e-001
 -6.4202142e-002 -1.3023657e-001
 -9.4173097e-002 -1.6577969e-001
 -1.0666151e-001 -1.7669013e-001
 -9.2940158e-002 -1.5304078e-001
 -6.5666894e-002 -1.1371321e-001
 -4.4580337e-002 -8.5717039e-002
 -4.0260905e-002 -8.1870907e-002
 -4.7905115e-002 -9.3490597e-002
 -5.3978437e-002 -1.0096206e-001
 -4.8595463e-002 -9.1458157e-002
 -3.3073858e-002 -6.8836347e-002
 -1.7365269e-002 -4.8706931e-002
 -1.0530711e-002 -4.4094641e-002
 -1.2853275e-002 -5.4102696e-002
 -1.5896727e-002 -6.4701520e-002
 -9.9751060e-003 -6.0395116e-002
  7.5284959e-003 -3.6875887e-002
  3.0022540e-002 -4.3561850e-003
  4.7394392e-002  2.0908168e-002
  5.4704693e-002  2.9830695e-002
  5.6679350e-002  2.7820514e-002
  6.4232105e-002  3.0507845e-002
  8.5748099e-002  5.1326899e-002
  1.2008065e-001  9.0794593e-002
  1.5694065e-001  1.3586365e-001
  1.8435732e-001  1.6965781e-001
  1.9754216e-001  1.8406220e-001
  2.0228109e-001  1.8554374e-001
  2.1026873e-001  1.9000383e-001
  2.2996278e-001  2.1084144e-001
  2.5990916e-001  2.4918699e-001
  2.8944118e-001  2.9330318e-001
  3.0599701e-001  3.2696165e-001
  3.0339282e-001  3.4007183e-001
  2.8503378e-001  3.3381303e-001
  2.6014708e-001  3.1723346e-001
  2.3641594e-001  2.9892477e-001
  2.1483327e-001  2.8059744e-001
  1.9056193e-001  2.5733785e-001
  1.5849147e-001  2.2342528e-001
  1.1878197e-001  1.7854225e-001
  7.7834310e-002  1.2919086e-001
  4.3994391e-002  8.4410607e-002
  2.1581385e-002  4.9586258e-002
  8.0180974e-003  2.3414131e-002
 -3.7433440e-003  2.4212004e-004
 -1.9485229e-002 -2.4415661e-002
 -3.9161749e-002 -4.9843358e-002
 -5.7007779e-002 -7.0785170e-002
 -6.6129381e-002 -8.2068041e-002
 -6.3959261e-002 -8.3196737e-002
 -5.4413303e-002 -7.9139148e-002
 -4.5349546e-002 -7.6808681e-002
 -4.3415950e-002 -8.0184876e-002
 -5.0037123e-002 -8.7924226e-002
 -6.1292483e-002 -9.5236512e-002
 -7.1143270e-002 -9.8093889e-002
 -7.5389722e-002 -9.6281155e-002
 -7.3492620e-002 -9.2846700e-002
 -6.7573899e-002 -9.0792951e-002
 -6.0107305e-002 -9.0146786e-002
 -5.2540615e-002 -8.8101593e-002
 -4.5705557e-002 -8.2151169e-002
 -4.0943310e-002 -7.3340257e-002
 -4.0303374e-002 -6.6560754e-002
 -4.5164664e-002 -6.7265605e-002
 -5.4369255e-002 -7.6980229e-002
 -6.3881506e-002 -9.1396771e-002
 -6.8814006e-002 -1.0285744e-001
 -6.6704978e-002 -1.0559671e-001
 -5.9562402e-002 -9.9829738e-002
 -5.2840289e-002 -9.1523981e-002
 -5.1728454e-002 -8.7906477e-002
 -5.7507793e-002 -9.2166805e-002
 -6.6659273e-002 -1.0129214e-001
 -7.3486772e-002 -1.0867408e-001
 -7.4318152e-002 -1.0933470e-001
 -7.0122215e-002 -1.0373252e-001
 -6.5655728e-002 -9.7322534e-002
 -6.5775578e-002 -9.6315312e-002
 -7.1870945e-002 -1.0303930e-001
 -8.1083498e-002 -1.1436804e-001
 -8.8708671e-002 -1.2415950e-001
 -9.1705483e-002 -1.2761462e-001
 -9.0521775e-002 -1.2417183e-001
 -8.7942852e-002 -1.1699807e-001
 -8.6261668e-002 -1.1001232e-001
 -8.5323553e-002 -1.0514435e-001
 -8.3119248e-002 -1.0188706e-001
 -7.8259467e-002 -9.9024549e-002
 -7.2049754e-002 -9.6583377e-002
 -6.8110331e-002 -9.6070589e-002
 -6.9642267e-002 -9.8773862e-002
 -7.6584650e-002 -1.0394257e-001
 -8.5221296e-002 -1.0878014e-001
 -9.0759125e-002 -1.1053699e-001
 -9.0941348e-002 -1.0889535e-001
 -8.7652163e-002 -1.0635799e-001
 -8.5224119e-002 -1.0611255e-001
 -8.6661706e-002 -1.0900628e-001
 -9.0992862e-002 -1.1244305e-001
 -9.3968047e-002 -1.1241101e-001
 -9.1731280e-002 -1.0720213e-001
 -8.4290861e-002 -9.9501687e-002
 -7.5789524e-002 -9.4707693e-002
 -7.1235260e-002 -9.6548498e-002
 -7.2211972e-002 -1.0346467e-001
 -7.5429679e-002 -1.0926685e-001
 -7.5471878e-002 -1.0799153e-001
 -6.9661850e-002 -9.9162665e-002
 -6.0852884e-002 -8.8766937e-002
 -5.5333008e-002 -8.4375769e-002
 -5.7172751e-002 -8.7901219e-002
 -6.3679335e-002 -9.2149641e-002
 -6.6212432e-002 -8.5096754e-002
 -5.6521676e-002 -5.9715410e-002
 -3.4014228e-002 -2.2013262e-002
 -8.0025018e-003  9.8028615e-003
  7.6908564e-003  1.6140801e-002
  4.3757175e-003 -1.0102334e-002
 -1.4966050e-002 -5.7018276e-002
 -3.7696981e-002 -1.0033073e-001
 -5.1098828e-002 -1.1959864e-001
 -5.2272623e-002 -1.1249036e-001
 -5.0321801e-002 -9.6198871e-002
 -5.8325602e-002 -9.4021300e-002
 -8.1188074e-002 -1.1675364e-001
 -1.0934215e-001 -1.5324166e-001
 -1.2477768e-001 -1.7855119e-001
 -1.1602916e-001 -1.7458333e-001
 -9.0362238e-002 -1.4712702e-001
 -7.1751344e-002 -1.2414953e-001
 -8.2809486e-002 -1.3307874e-001
 -1.2207064e-001 -1.7189467e-001
 -1.5416431e-001 -1.9659711e-001
 -1.2424003e-001 -1.3939134e-001
  8.0868970e-003  4.8560099e-002
  2.3530250e-001  3.5525394e-001
  4.9215315e-001  6.9571227e-001
  6.8016671e-001  9.4303236e-001
  7.1566704e-001  9.8918830e-001
  5.7460041e-001  8.0194202e-001
  3.0753936e-001  4.4461415e-001
  1.5095575e-002  4.6201762e-002
 -2.0233032e-001 -2.6139421e-001
 -2.9161358e-001 -4.0370365e-001
 -2.6492039e-001 -3.8886722e-001
 -1.8146179e-001 -2.8770025e-001
 -1.0745226e-001 -1.8512516e-001
 -7.9833856e-002 -1.3396545e-001
 -9.4177684e-002 -1.3675229e-001
 -1.1948591e-001 -1.6050450e-001
 -1.2583925e-001 -1.6893840e-001
 -1.0481483e-001 -1.4832672e-001
 -7.0997814e-002 -1.1189930e-001
 -4.7007882e-002 -8.4303839e-002
 -4.5343661e-002 -8.0726244e-002
 -6.0424249e-002 -9.6477660e-002
 -7.4994403e-002 -1.1288933e-001
 -7.4225673e-002 -1.1282624e-001
 -5.6210381e-002 -9.3107996e-002
 -3.1711307e-002 -6.5120531e-002
 -1.4693362e-002 -4.4698068e-002
 -1.1679552e-002 -3.9961184e-002
 -1.7858172e-002 -4.6336310e-002
 -2.1980122e-002 -5.1542544e-002
 -1.5245305e-002 -4.5530505e-002
  2.8457874e-003 -2.7450488e-002
  2.5657880e-002 -4.7230454e-003
  4.5661239e-002  1.3990670e-002
  6.0292871e-002  2.5806527e-002
  7.2968160e-002  3.5154629e-002
  8.9151257e-002  4.9289252e-002
  1.1129408e-001  7.1987103e-002
  1.3693575e-001  1.0066773e-001
  1.6128705e-001  1.2904603e-001
  1.8161429e-001  1.5265926e-001
  1.9950854e-001  1.7254886e-001
  2.1906458e-001  1.9407854e-001
  2.4260990e-001  2.2196733e-001
  2.6778477e-001  2.5572404e-001
  2.8857227e-001  2.8921622e-001
  2.9950982e-001  3.1463443e-001
  2.9964486e-001  3.2760626e-001
  2.9278741e-001  3.2929895e-001
  2.8379964e-001  3.2407395e-001
  2.7377933e-001  3.1467783e-001
  2.5835684e-001  2.9920183e-001
  2.3081724e-001  2.7252436e-001
  1.8801852e-001  2.3124098e-001
  1.3453982e-001  1.7817575e-001
  8.1581182e-002  1.2259918e-001
  4.0924574e-002  7.5498943e-002
  1.7976059e-002  4.3055028e-002
  8.7280738e-003  2.2979070e-002
  2.8987046e-003  6.5546348e-003
 -8.9148798e-003 -1.4956284e-002
 -2.9073131e-002 -4.4033240e-002
 -5.1878778e-002 -7.5125456e-002
 -6.8157204e-002 -9.8538761e-002
 -7.1960532e-002 -1.0720253e-001
 -6.4669492e-002 -1.0155242e-001
 -5.3718066e-002 -8.9181117e-002
 -4.7327648e-002 -7.9852378e-002
 -4.9052350e-002 -7.9348898e-002
 -5.6081312e-002 -8.6469999e-002
 -6.2092978e-002 -9.4860177e-002
 -6.2184237e-002 -9.7966555e-002
 -5.6244794e-002 -9.3543051e-002
 -4.8444741e-002 -8.4631261e-002
 -4.3749674e-002 -7.6857846e-002
 -4.4239516e-002 -7.4308660e-002
 -4.8061733e-002 -7.7104553e-002
 -5.1427841e-002 -8.1974031e-002
 -5.1843444e-002 -8.5028739e-002
 -4.9885646e-002 -8.4428837e-002
 -4.8272219e-002 -8.1098883e-002
 -4.9213207e-002 -7.7386614e-002
 -5.2446773e-002 -7.5165947e-002
 -5.5485514e-002 -7.4858797e-002
 -5.5911240e-002 -7.5954636e-002
 -5.3655550e-002 -7.8060092e-002
 -5.1228541e-002 -8.1245956e-002
 -5.1698053e-002 -8.5392561e-002
 -5.5950273e-002 -8.9282801e-002
 -6.1641703e-002 -9.0718106e-002
 -6.4879227e-002 -8.8050215e-002
 -6.3386827e-002 -8.2073465e-002
 -5.8642739e-002 -7.6474182e-002
 -5.5120902e-002 -7.5987853e-002
 -5.7019641e-002 -8.3120090e-002
 -6.4835582e-002 -9.5766194e-002
 -7.4538012e-002 -1.0780823e-001
 -8.0158680e-002 -1.1273322e-001
 -7.8090530e-002 -1.0805075e-001
 -6.9880697e-002 -9.7368287e-002
 -6.1370676e-002 -8.8390534e-002
 -5.8728030e-002 -8.8007642e-002
 -6.4156605e-002 -9.7671608e-002
 -7.4423429e-002 -1.1236844e-001
 -8.3187690e-002 -1.2389470e-001
 -8.5441627e-002 -1.2625897e-001
 -8.0711597e-002 -1.1936220e-001
 -7.2893025e-002 -1.0859174e-001
 -6.7026041e-002 -1.0078239e-001
 -6.5676499e-002 -9.9533031e-002
 -6.7607227e-002 -1.0320756e-001
 -6.9539920e-002 -1.0681472e-001
 -6.9311528e-002 -1.0612617e-001
 -6.7635856e-002 -1.0079786e-001
 -6.7232594e-002 -9.4432787e-002
 -7.0038717e-002 -9.1750992e-002
 -7.5154259e-002 -9.5252028e-002
 -7.9299415e-002 -1.0373719e-001
 -7.9437584e-002 -1.1343118e-001
 -7.5397444e-002 -1.2047702e-001
 -7.0098073e-002 -1.2276316e-001
 -6.7112142e-002 -1.2015824e-001
 -6.7645408e-002 -1.1369107e-001
 -6.9491192e-002 -1.0491757e-001
 -6.8975132e-002 -9.6012434e-002
 -6.4248392e-002 -8.9790852e-002
 -5.7050459e-002 -8.8590645e-002
 -5.1095634e-002 -9.1988449e-002
 -4.8283056e-002 -9.5206461e-002
 -4.6171329e-002 -9.0492400e-002
 -3.9312871e-002 -7.1901771e-002
 -2.3999233e-002 -4.0827697e-002
 -2.6620845e-003 -7.9632234e-003
  1.6017019e-002  1.1137144e-002
  2.2321310e-002  5.1820151e-003
  1.2431753e-002 -2.4918234e-002
 -8.3296091e-003 -6.5348593e-002
 -2.9067442e-002 -9.7583690e-002
 -4.1435709e-002 -1.1043693e-001
 -4.6005863e-002 -1.0738509e-001
 -5.1279913e-002 -1.0320990e-001
 -6.5421283e-002 -1.1166443e-001
 -8.7171519e-002 -1.3323738e-001
 -1.0417799e-001 -1.5325126e-001
 -1.0175701e-001 -1.5311209e-001
 -7.6584644e-002 -1.2713407e-001
 -4.4132514e-002 -9.1432282e-002
 -3.1287998e-002 -7.5098254e-002
 -5.6086128e-002 -9.6638010e-002
 -1.0763755e-001 -1.4122596e-001
 -1.4236558e-001 -1.5732285e-001
 -1.0401189e-001 -8.0747481e-002
  4.1045653e-002  1.2419399e-001
  2.7429728e-001  4.3104298e-001
  5.2233745e-001  7.4887694e-001
  6.8688536e-001  9.5803179e-001
  6.9341622e-001  9.6721908e-001
  5.3108804e-001  7.6090186e-001
  2.6024454e-001  4.0949358e-001
 -1.7536482e-002  3.5969286e-002
 -2.0971024e-001 -2.4244500e-001
 -2.7489061e-001 -3.6531025e-001
 -2.3426597e-001 -3.4631045e-001
 -1.4911861e-001 -2.5158916e-001
 -8.1184017e-002 -1.5603480e-001
 -6.0712192e-002 -1.0484801e-001
 -7.9079583e-002 -1.0035411e-001
 -1.0560494e-001 -1.1602455e-001
 -1.1343498e-001 -1.2306410e-001
 -9.6412064e-002 -1.1029877e-001
 -6.8019381e-002 -8.6446848e-002
 -4.6969175e-002 -6.7724279e-002
 -4.2153785e-002 -6.2942233e-002
 -4.7971800e-002 -6.7664498e-002
 -5.1397322e-002 -6.9910730e-002
 -4.3669343e-002 -6.1198496e-002
 -2.6821206e-002 -4.3320114e-002
 -1.0838654e-002 -2.6117889e-002
 -4.6910941e-003 -1.8852793e-002
 -9.0307543e-003 -2.2599107e-002
 -1.6066308e-002 -2.9550037e-002
 -1.6027677e-002 -2.9183985e-002
 -4.5934129e-003 -1.6032766e-002
  1.4611385e-002  6.8718803e-003
  3.3967459e-002  3.1179999e-002
  4.8509244e-002  4.9940071e-002
  5.9705375e-002  6.2472268e-002
  7.3608556e-002  7.4008725e-002
  9.5255083e-002  9.0984065e-002
  1.2403821e-001  1.1596684e-001
  1.5387247e-001  1.4613062e-001
  1.7786908e-001  1.7602971e-001
  1.9364360e-001  2.0196146e-001
  2.0510861e-001  2.2441888e-001
  2.1930527e-001  2.4690436e-001
  2.4083576e-001  2.7244026e-001
  2.6814338e-001  3.0075525e-001
  2.9416615e-001  3.2815426e-001
  3.1071209e-001  3.4993298e-001
  3.1318314e-001  3.6311694e-001
  3.0240023e-001  3.6739982e-001
  2.8275137e-001  3.6393546e-001
  2.5856000e-001  3.5332272e-001
  2.3156816e-001  3.3471407e-001
  2.0118838e-001  3.0682736e-001
  1.6667648e-001  2.6984067e-001
  1.2924968e-001  2.2655540e-001
  9.2310767e-002  1.8169002e-001
  5.9767473e-002  1.3978957e-001
  3.3871463e-002  1.0326596e-001
  1.4226752e-002  7.1977434e-002
 -1.4096661e-003  4.4477147e-002
 -1.5337183e-002  1.9838338e-002
 -2.8476736e-002 -1.3388926e-003
 -4.0152773e-002 -1.7406557e-002
 -4.8978263e-002 -2.7135236e-002
 -5.3961820e-002 -3.0924795e-002
 -5.5161113e-002 -3.0906990e-002
 -5.3615915e-002 -2.9847319e-002
 -5.0870816e-002 -2.9722490e-002
 -4.8373515e-002 -3.0839481e-002
 -4.7050241e-002 -3.2063427e-002
 -4.7034865e-002 -3.1849013e-002
 -4.7666352e-002 -2.9419183e-002
 -4.7861682e-002 -2.5398350e-002
 -4.6845439e-002 -2.1569912e-002
 -4.4903576e-002 -2.0009545e-002
 -4.3415719e-002 -2.1885788e-002
 -4.4087664e-002 -2.6772349e-002
 -4.7639149e-002 -3.2729540e-002
 -5.3004806e-002 -3.7230012e-002
 -5.7766453e-002 -3.8470554e-002
 -5.9673332e-002 -3.6311606e-002
 -5.8327187e-002 -3.2320404e-002
 -5.5567984e-002 -2.8773631e-002
 -5.4205069e-002 -2.7336963e-002
 -5.5916118e-002 -2.8282958e-002
 -5.9944194e-002 -3.0800501e-002
 -6.3651754e-002 -3.3984981e-002
 -6.4645214e-002 -3.7702419e-002
 -6.2706645e-002 -4.2451369e-002
 -6.0049286e-002 -4.8406589e-002
 -5.9554431e-002 -5.4466813e-002
 -6.2422101e-002 -5.8465919e-002
 -6.7143998e-002 -5.8622861e-002
 -7.0775920e-002 -5.5284082e-002
 -7.1575151e-002 -5.1430963e-002
 -7.0688757e-002 -5.1109334e-002
 -7.1454520e-002 -5.6704815e-002
 -7.6646862e-002 -6.6995949e-002
 -8.5775328e-002 -7.7653703e-002
 -9.4795466e-002 -8.4057802e-002
 -9.8606871e-002 -8.4389657e-002
 -9.4678018e-002 -8.0718239e-002
 -8.4948694e-002 -7.7046132e-002
 -7.4655303e-002 -7.6023799e-002
 -6.8790547e-002 -7.6902050e-002
 -6.9002763e-002 -7.6639026e-002
 -7.3142494e-002 -7.3224210e-002
 -7.7560827e-002 -6.8384392e-002
 -8.0083583e-002 -6.6949653e-002
 -8.1163118e-002 -7.2962599e-002
 -8.2551819e-002 -8.5541918e-002
 -8.4843274e-002 -9.8198630e-002
 -8.6372279e-002 -1.0288592e-001
 -8.4653707e-002 -9.6139212e-002
 -7.9176170e-002 -8.2544758e-002
 -7.2843134e-002 -7.2166479e-002
 -7.0464186e-002 -7.3402772e-002
 -7.5071418e-002 -8.6318843e-002
 -8.5021569e-002 -1.0188170e-001
 -9.4467663e-002 -1.0817772e-001
 -9.7188693e-002 -9.9191060e-002
 -9.0886989e-002 -7.9312341e-002
 -7.8577532e-002 -5.9791065e-002
 -6.5860865e-002 -4.9659922e-002
 -5.6316547e-002 -4.8298660e-002
 -4.8920840e-002 -4.5954769e-002
 -3.9767015e-002 -3.2446930e-002
 -2.6719314e-002 -7.3074517e-003
 -1.2827934e-002  1.7166851e-002
 -5.2169928e-003  2.3455118e-002
 -9.8146395e-003  1.9566628e-003
 -2.6102313e-002 -4.0324070e-002
 -4.6622680e-002 -8.3160038e-002
 -6.2093714e-002 -1.0681130e-001
 -6.8468625e-002 -1.0602322e-001
 -6.9811609e-002 -9.3318278e-002
 -7.4187343e-002 -8.8300347e-002
 -8.5611370e-002 -1.0110757e-001
 -9.9072319e-002 -1.2343119e-001
 -1.0389001e-001 -1.3544515e-001
 -9.3727038e-002 -1.2400840e-001
 -7.5140953e-002 -9.7204342e-002
 -6.5763210e-002 -8.1023296e-002
 -8.0285514e-002 -9.6822391e-002
 -1.1307387e-001 -1.3481944e-001
 -1.3159766e-001 -1.4567865e-001
 -8.9854407e-002 -6.2669248e-002
  4.2421746e-002  1.5415138e-001
  2.5205185e-001  4.7881002e-001
  4.7614388e-001  8.1390573e-001
  6.2598556e-001  1.0288293e+000
  6.3082900e-001  1.0240792e+000
  4.7707143e-001  7.8546339e-001
  2.1887215e-001  3.9561763e-001
 -4.7524363e-002 -5.5098587e-003
 -2.3152942e-001 -2.8869216e-001
 -2.9075221e-001 -3.9354742e-001
 -2.4471064e-001 -3.4549193e-001
 -1.5432827e-001 -2.2649930e-001
 -8.2505526e-002 -1.2184904e-001
 -6.0834285e-002 -7.6422270e-002
 -8.0771861e-002 -8.3590514e-002
 -1.1021417e-001 -1.0649704e-001
 -1.2049834e-001 -1.1173187e-001
 -1.0473528e-001 -9.1374213e-002
 -7.7258749e-002 -6.1653281e-002
 -5.8294117e-002 -4.4338850e-002
 -5.7458307e-002 -4.7833087e-002
 -6.8163346e-002 -6.2021151e-002
 -7.5273948e-002 -6.8479984e-002
 -6.8308863e-002 -5.6066833e-002
 -4.9327764e-002 -2.9197877e-002
 -3.0064743e-002 -3.2209592e-003
 -2.1650577e-002  8.2201045e-003
 -2.5702988e-002  3.3550175e-003
 -3.3453722e-002 -7.2793968e-003
 -3.2997575e-002 -9.5399101e-003
 -1.8381877e-002  4.0398433e-003
  6.5377331e-003  3.0065677e-002
  3.1888112e-002  5.8383725e-002
  4.9721514e-002  8.0356755e-002
  5.9582911e-002  9.4453484e-002
  6.7878573e-002  1.0564852e-001
  8.2150856e-002  1.2015452e-001
  1.0515909e-001  1.4045885e-001
  1.3330578e-001  1.6446852e-001
  1.6005284e-001  1.8863832e-001
  1.8103469e-001  2.1158247e-001
  1.9667348e-001  2.3484657e-001
  2.1060060e-001  2.6049701e-001
  2.2566256e-001  2.8803951e-001
  2.4117188e-001  3.1380206e-001
  2.5351134e-001  3.3345911e-001
  2.5922929e-001  3.4539583e-001
  2.5772101e-001  3.5178695e-001
  2.5117844e-001  3.5623811e-001
  2.4193651e-001  3.5976829e-001
  2.2968208e-001  3.5859788e-001
  2.1109952e-001  3.4586535e-001
  1.8246147e-001  3.1623763e-001
  1.4320326e-001  2.7008046e-001
  9.7610815e-002  2.1411245e-001
  5.3229715e-002  1.5811177e-001
  1.7097896e-002  1.1015875e-001
 -7.6116052e-003  7.3548705e-002
 -2.2384432e-002  4.7048111e-002
 -3.1503467e-002  2.7437576e-002
 -3.9152280e-002  1.1980422e-002
 -4.7473723e-002 -7.8921343e-004
 -5.6477458e-002 -1.1805055e-002
 -6.5103459e-002 -2.2128164e-002
 -7.2177095e-002 -3.2450079e-002
 -7.6677175e-002 -4.1973699e-002
 -7.7668846e-002 -4.8114760e-002
 -7.4653866e-002 -4.8042985e-002
 -6.8358855e-002 -4.1211629e-002
 -6.1223966e-002 -3.0760482e-002
 -5.6678977e-002 -2.2224482e-002
 -5.7254096e-002 -2.0032979e-002
 -6.2743568e-002 -2.4345612e-002
 -6.9879526e-002 -3.0737229e-002
 -7.4113536e-002 -3.3262411e-002
 -7.2465491e-002 -2.8732685e-002
 -6.5425396e-002 -1.8978574e-002
 -5.6546433e-002 -9.3885164e-003
 -5.0067134e-002 -4.9188376e-003
 -4.8408378e-002 -6.7563614e-003
 -5.1243987e-002 -1.2120124e-002
 -5.6552590e-002 -1.7094560e-002
 -6.2488754e-002 -1.9939293e-002
 -6.8333006e-002 -2.1995468e-002
 -7.3924011e-002 -2.5585708e-002
 -7.8425739e-002 -3.0967166e-002
 -8.0036265e-002 -3.5330476e-002
 -7.7339964e-002 -3.5023607e-002
 -7.1232425e-002 -2.9259139e-002
 -6.5452596e-002 -2.1902678e-002
 -6.4681669e-002 -1.9404630e-002
 -7.1143642e-002 -2.6008056e-002
 -8.2302750e-002 -4.0017436e-002
 -9.1761549e-002 -5.4304320e-002
 -9.3253176e-002 -6.1080274e-002
 -8.5005438e-002 -5.7419516e-002
 -7.1355355e-002 -4.7395644e-002
 -6.0139485e-002 -3.9085861e-002
 -5.7668332e-002 -3.8729177e-002
 -6.4854491e-002 -4.6619855e-002
 -7.7183623e-002 -5.7734980e-002
 -8.8269563e-002 -6.6253606e-002
 -9.4143054e-002 -7.0129080e-002
 -9.5074150e-002 -7.1944719e-002
 -9.3877344e-002 -7.5607038e-002
 -9.2668953e-002 -8.2123192e-002
 -9.1064193e-002 -8.8353790e-002
 -8.7366047e-002 -8.9993945e-002
 -8.1377077e-002 -8.6114956e-002
 -7.5994316e-002 -8.1014605e-002
 -7.5613679e-002 -8.1220481e-002
 -8.2380881e-002 -8.9896375e-002
 -9.3500187e-002 -1.0341074e-001
 -1.0227360e-001 -1.1345614e-001
 -1.0251931e-001 -1.1332412e-001
 -9.3044978e-002 -1.0320535e-001
 -7.8455737e-002 -8.9802349e-002
 -6.5362171e-002 -8.0135177e-002
 -5.6960658e-002 -7.4723344e-002
 -5.0639998e-002 -6.6548190e-002
 -4.0859333e-002 -4.7671945e-002
 -2.5094750e-002 -1.8561356e-002
 -7.7661180e-003  8.0700807e-003
  1.7837354e-003  1.3733859e-002
 -3.6302888e-003 -1.2460217e-002
 -2.2476032e-002 -6.3496502e-002
 -4.4246436e-002 -1.1632970e-001
 -5.6726050e-002 -1.4630011e-001
 -5.5551611e-002 -1.4431828e-001
 -4.8303710e-002 -1.2368748e-001
 -4.9023241e-002 -1.1035321e-001
 -6.6516857e-002 -1.2274675e-001
 -9.5738490e-002 -1.5679799e-001
 -1.1992126e-001 -1.8856683e-001
 -1.2315250e-001 -1.9379932e-001
 -1.0425819e-001 -1.6959183e-001
 -8.0005172e-002 -1.3949400e-001
 -7.2742376e-002 -1.3458571e-001
 -8.9772543e-002 -1.6212951e-001
 -1.0993926e-001 -1.8591692e-001
 -9.0184823e-002 -1.3785337e-001
  8.1932598e-003  4.0323476e-002
  1.8872428e-001  3.4918901e-001
  4.0554159e-001  7.1074452e-001
  5.7835187e-001  9.9363695e-001
  6.3113991e-001  1.0753818e+000
  5.3293508e-001  9.0731320e-001
  3.1624616e-001  5.4369706e-001
  6.1612878e-002  1.1670553e-001
 -1.4283142e-001 -2.2870388e-001
 -2.4317160e-001 -4.0253438e-001
 -2.3958323e-001 -4.0278706e-001
 -1.7551180e-001 -2.9913170e-001
 -1.0639522e-001 -1.8271594e-001
 -6.8749805e-002 -1.1528514e-001
 -6.7225989e-002 -1.0647336e-001
 -8.3181654e-002 -1.2650388e-001
 -9.4557382e-002 -1.3859546e-001
 -9.1719110e-002 -1.2623040e-001
 -7.9974435e-002 -9.8980258e-002
 -7.0426829e-002 -7.7903922e-002
 -6.8855513e-002 -7.5769486e-002
 -7.1615601e-002 -8.7736173e-002
 -7.0398591e-002 -9.7648213e-002
 -6.0441213e-002 -9.2538932e-002
 -4.4763697e-002 -7.2724844e-002
 -3.1163561e-002 -5.0021230e-002
 -2.5171425e-002 -3.6957063e-002
 -2.5200631e-002 -3.6455559e-002
 -2.4037784e-002 -4.0275964e-002
 -1.5103317e-002 -3.6590316e-002
  1.9003529e-003 -1.9910856e-002
  2.0656914e-002  4.7014096e-003
  3.3559851e-002  2.6265910e-002
  3.8133766e-002  3.7014747e-002
  3.9394267e-002  3.8627517e-002
  4.6189051e-002  4.0811936e-002
  6.4579302e-002  5.3823087e-002
  9.3306205e-002  8.0928210e-002
  1.2490346e-001  1.1657702e-001
  1.5133919e-001  1.5114680e-001
  1.6969582e-001  1.7813563e-001
  1.8363270e-001  1.9827156e-001
  1.9980065e-001  2.1784165e-001
  2.2220658e-001  2.4306949e-001
  2.4884613e-001  2.7507728e-001
  2.7286456e-001  3.0897759e-001
  2.8696423e-001  3.3709445e-001
  2.8751900e-001  3.5339722e-001
  2.7569508e-001  3.5597343e-001
  2.5528593e-001  3.4633473e-001
  2.2966194e-001  3.2707535e-001
  2.0023346e-001  3.0004370e-001
  1.6725202e-001  2.6625509e-001
  1.3156463e-001  2.2690139e-001
  9.5433466e-002  1.8399755e-001
  6.1675461e-002  1.4008447e-001
  3.2107928e-002  9.7396180e-002
  6.8654728e-003  5.7574892e-002
 -1.4694360e-002  2.2233524e-002
 -3.2480705e-002 -6.5036238e-003
 -4.5183372e-002 -2.6496037e-002
 -5.1493146e-002 -3.7163326e-002
 -5.2048463e-002 -4.0854557e-002
 -5.0201257e-002 -4.2443620e-002
 -5.0426290e-002 -4.6759936e-002
 -5.5342756e-002 -5.5459955e-002
 -6.3620864e-002 -6.5769239e-002
 -7.0744160e-002 -7.2504358e-002
 -7.2318873e-002 -7.2068571e-002
 -6.7535964e-002 -6.5528176e-002
 -6.0123085e-002 -5.8255965e-002
 -5.5777906e-002 -5.6121356e-002
 -5.8001441e-002 -6.1089196e-002
 -6.5414036e-002 -6.9604785e-002
 -7.2697922e-002 -7.5154291e-002
 -7.4429453e-002 -7.3115281e-002
 -6.8989772e-002 -6.4330241e-002
 -5.9552018e-002 -5.4511646e-002
 -5.1553329e-002 -4.9988933e-002
 -4.8670017e-002 -5.3059119e-002
 -5.0360421e-002 -6.0417103e-002
 -5.2920366e-002 -6.5967347e-002
 -5.2843145e-002 -6.5569156e-002
 -4.9880237e-002 -6.0251425e-002
 -4.7255717e-002 -5.5410240e-002
 -4.9003310e-002 -5.6732093e-002
 -5.6605934e-002 -6.6103761e-002
 -6.7525525e-002 -8.0359769e-002
 -7.6803354e-002 -9.3628369e-002
 -8.0403119e-002 -1.0118907e-001
 -7.7754404e-002 -1.0194292e-001
 -7.1808369e-002 -9.8127133e-002
 -6.6689910e-002 -9.2983535e-002
 -6.4973709e-002 -8.8600196e-002
 -6.6476393e-002 -8.5468399e-002
 -6.9107788e-002 -8.3445834e-002
 -7.0743881e-002 -8.2724745e-002
 -7.0613203e-002 -8.3726664e-002
 -6.9384616e-002 -8.6205225e-002
 -6.8301848e-002 -8.8852687e-002
 -6.8415570e-002 -9.0231467e-002
 -7.0390656e-002 -9.0337915e-002
 -7.4612701e-002 -9.1170137e-002
 -8.0962296e-002 -9.5296598e-002
 -8.8235097e-002 -1.0326870e-001
 -9.3928551e-002 -1.1216820e-001
 -9.5168505e-002 -1.1702917e-001
 -9.0606433e-002 -1.1455597e-001
 -8.1956628e-002 -1.0623176e-001
 -7.3646196e-002 -9.7978023e-002
 -7.0292370e-002 -9.6011881e-002
 -7.3483657e-002 -1.0184311e-001
 -8.0279791e-002 -1.1046872e-001
 -8.4854906e-002 -1.1366529e-001
 -8.2378678e-002 -1.0615339e-001
 -7.2396456e-002 -8.9842550e-002
 -5.9032173e-002 -7.2391536e-002
 -4.7781481e-002 -6.0954532e-002
 -4.1461881e-002 -5.6159271e-002
 -3.8433061e-002 -5.1551765e-002
 -3.4585827e-002 -3.9544793e-002
 -2.7370697e-002 -1.9314983e-002
 -1.8513857e-002  1.3997947e-004
 -1.2839523e-002  5.2760067e-003
 -1.4197053e-002 -1.1684953e-002
 -2.1978479e-002 -4.5467671e-002
 -3.1597172e-002 -8.0084497e-002
 -3.8699678e-002 -9.9899189e-002
 -4.3520383e-002 -1.0125760e-001
 -5.1034908e-002 -9.5054203e-002
 -6.5932053e-002 -9.7262214e-002
 -8.6313067e-002 -1.1443967e-001
 -1.0217931e-001 -1.3637029e-001
 -1.0180888e-001 -1.4344585e-001
 -8.2413854e-002 -1.2452021e-001
 -5.6362851e-002 -9.0759119e-002
 -4.5731067e-002 -7.1602518e-002
 -6.5849121e-002 -9.1300915e-002
 -1.0800718e-001 -1.4087195e-001
 -1.3521981e-001 -1.6820698e-001
 -9.8347973e-002 -9.9944554e-002
  3.3474560e-002  1.1241691e-001
  2.4597662e-001  4.4926245e-001
  4.7534659e-001  8.1309161e-001
  6.3320482e-001  1.0650550e+000
  6.4966679e-001  1.0920929e+000
  5.1070049e-001  8.6746028e-001
  2.6745124e-001  4.6864056e-001
  1.1293506e-002  4.0648523e-002
 -1.7157881e-001 -2.7503666e-001
 -2.4004413e-001 -4.0545163e-001
 -2.1061042e-001 -3.6967966e-001
 -1.3826645e-001 -2.5192149e-001
 -8.0054330e-002 -1.4511825e-001
 -6.4464150e-002 -1.0111962e-001
 -8.3543484e-002 -1.1487551e-001
 -1.0828221e-001 -1.4543734e-001
 -1.1351797e-001 -1.5360613e-001
 -9.4551660e-002 -1.2885404e-001
 -6.6205316e-002 -9.0145420e-002
 -4.8128275e-002 -6.5305411e-002
 -4.9150743e-002 -6.7735230e-002
 -6.2099780e-002 -8.7967528e-002
 -7.1304115e-002 -1.0401113e-001
 -6.5704255e-002 -1.0014120e-001
 -4.6886049e-002 -7.8625343e-002
 -2.6578834e-002 -5.6004126e-002
 -1.6566782e-002 -4.8337554e-002
 -1.9297449e-002 -5.7814085e-002
 -2.6287741e-002 -7.1188666e-002
 -2.5040041e-002 -7.0565562e-002
 -8.6643079e-003 -4.7516476e-002
  1.9207099e-002 -9.4860798e-003
  4.7515584e-002  2.6057359e-002
  6.6038240e-002  4.4649991e-002
  7.2420270e-002  4.4960727e-002
  7.3122003e-002  3.8799903e-002
  7.8257345e-002  4.1849934e-002
  9.4547277e-002  6.2596544e-002
  1.2160571e-001  9.7612998e-002
  1.5349807e-001  1.3581517e-001
  1.8350788e-001  1.6735608e-001
  2.0813292e-001  1.8997488e-001
  2.2773136e-001  2.0854481e-001
  2.4421373e-001  2.2928047e-001
  2.5834333e-001  2.5395155e-001
  2.6905224e-001  2.7873680e-001
  2.7472389e-001  2.9785868e-001
  2.7476176e-001  3.0818599e-001
  2.6957770e-001  3.1055338e-001
  2.5908060e-001  3.0700513e-001
  2.4143543e-001  2.9695221e-001
  2.1391580e-001  2.7637736e-001
  1.7568910e-001  2.4128721e-001
  1.3041700e-001  1.9277786e-001
  8.6004002e-002  1.3898917e-001
  5.0915164e-002  9.1522854e-002
  2.9213550e-002  5.8413912e-002
  1.7924613e-002  3.8798899e-002
  9.0448958e-003  2.3712628e-002
 -4.9035043e-003  2.8267533e-003
 -2.5620566e-002 -2.7713449e-002
 -4.7891896e-002 -6.2182053e-002
 -6.3486361e-002 -8.9320528e-002
 -6.7257268e-002 -1.0051326e-001
 -6.0996702e-002 -9.6004261e-002
 -5.2231214e-002 -8.4546828e-002
 -4.8821939e-002 -7.6901605e-002
 -5.3480963e-002 -7.8266328e-002
 -6.2163977e-002 -8.5265967e-002
 -6.7596703e-002 -8.9711829e-002
 -6.5018088e-002 -8.5744459e-002
 -5.5835489e-002 -7.4717988e-002
 -4.6517571e-002 -6.4064662e-002
 -4.3646895e-002 -6.1211795e-002
 -4.8960889e-002 -6.7529496e-002
 -5.8121886e-002 -7.7175005e-002
 -6.4069322e-002 -8.1711408e-002
 -6.2277761e-002 -7.6737784e-002
 -5.3969569e-002 -6.5295211e-002
 -4.4973567e-002 -5.5410722e-002
 -4.1258131e-002 -5.3800611e-002
 -4.4677283e-002 -6.0812559e-002
 -5.2049099e-002 -7.0572946e-002
 -5.8020868e-002 -7.6086263e-002
 -5.9296841e-002 -7.5015886e-002
 -5.6878049e-002 -7.1418250e-002
 -5.4729104e-002 -7.2033177e-002
 -5.6191644e-002 -8.0232898e-002
 -6.1169549e-002 -9.2660123e-002
 -6.6308805e-002 -1.0141780e-001
 -6.7886528e-002 -1.0021276e-001
 -6.4892885e-002 -8.9500098e-002
 -5.9790608e-002 -7.6368319e-002
 -5.6396966e-002 -6.9154691e-002
 -5.6760572e-002 -7.1055714e-002
 -5.9728600e-002 -7.7914107e-002
 -6.2323070e-002 -8.1915462e-002
 -6.2770019e-002 -7.8363300e-002
 -6.2361479e-002 -6.9873743e-002
 -6.4366869e-002 -6.4372901e-002
 -7.0801956e-002 -6.8314699e-002
 -7.9818088e-002 -8.0590625e-002
 -8.6127278e-002 -9.2267793e-002
 -8.4712540e-002 -9.2965187e-002
 -7.5031282e-002 -7.9126843e-002
 -6.2240977e-002 -5.7622614e-002
 -5.4152161e-002 -4.1552566e-002
 -5.5826525e-002 -4.1063684e-002
 -6.5855061e-002 -5.5948311e-002
 -7.7294256e-002 -7.5806772e-002
 -8.2697584e-002 -8.7674556e-002
 -7.9446564e-002 -8.5335651e-002
 -7.1352944e-002 -7.3264254e-002
 -6.5225823e-002 -6.2284849e-002
 -6.5177349e-002 -6.0636622e-002
 -6.9281531e-002 -6.7679183e-002
 -7.1417986e-002 -7.5274366e-002
 -6.6891023e-002 -7.5415051e-002
 -5.7060983e-002 -6.7460469e-002
 -4.8845650e-002 -5.8521108e-002
 -4.8943371e-002 -5.6311697e-002
 -5.7242746e-002 -6.0517028e-002
 -6.5086574e-002 -6.0655807e-002
 -6.0739238e-002 -4.3662131e-002
 -3.8578738e-002 -6.0718996e-003
 -5.1298836e-003  3.9044750e-002
  2.3472229e-002  6.7510180e-002
  3.1616669e-002  5.9534005e-002
  1.5087914e-002  1.4697100e-002
 -1.5494448e-002 -4.5344546e-002
 -4.1826355e-002 -8.9965016e-002
 -5.0847898e-002 -1.0001239e-001
 -4.3961877e-002 -8.0784478e-002
 -3.5392691e-002 -5.7432759e-002
 -4.0490691e-002 -5.5492420e-002
 -6.2942658e-002 -8.1025321e-002
 -9.1066154e-002 -1.1597050e-001
 -1.0687499e-001 -1.3322275e-001
 -1.0129115e-001 -1.2021337e-001
 -8.3128474e-002 -9.1646700e-002
 -7.2941094e-002 -7.8626674e-002
 -8.4353685e-002 -9.9368870e-002
 -1.0611487e-001 -1.3286113e-001
 -1.0035913e-001 -1.1865143e-001
 -2.2741185e-002  1.0157457e-002
  1.4557777e-001  2.7772037e-001
  3.7473963e-001  6.3213117e-001
  5.8976148e-001  9.5435195e-001
  7.0303513e-001  1.1107057e+000
  6.5929040e-001  1.0217774e+000
  4.6690273e-001  7.0768921e-001
  1.9624602e-001  2.8185209e-001
 -5.4960734e-002 -1.0467756e-001
 -2.0942960e-001 -3.3632182e-001
 -2.4401686e-001 -3.8233377e-001
 -1.9175580e-001 -2.9689460e-001
 -1.1416165e-001 -1.7502205e-001
 -6.3262871e-002 -9.4826914e-002
 -5.6640859e-002 -8.1150078e-002
 -7.7820253e-002 -1.0800464e-001
 -9.7016934e-002 -1.3089116e-001
 -9.5184621e-002 -1.2272974e-001
 -7.5039779e-002 -8.9345887e-002
 -5.4048452e-002 -5.7895773e-002
 -4.7779184e-002 -5.1396590e-002
 -5.7402649e-002 -7.0334480e-002
 -7.0180906e-002 -9.4101138e-002
 -7.0950604e-002 -9.8885805e-002
 -5.4668138e-002 -7.6726448e-002
 -3.0002492e-002 -4.0916221e-002
 -1.1834162e-002 -1.4720512e-002
 -9.2249637e-003 -1.3082795e-002
 -1.8477008e-002 -3.1687223e-002
 -2.6350176e-002 -5.1084826e-002
 -2.0581009e-002 -5.1905695e-002
  8.8487423e-004 -2.8943750e-002
  2.8797435e-002  6.1544829e-003
  5.0266622e-002  3.4924686e-002
  5.8774769e-002  4.6289389e-002
  5.8960586e-002  4.4194744e-002
  6.2628894e-002  4.3440556e-002
  7.9503071e-002  5.7771608e-002
  1.0996719e-001  8.9771783e-002
  1.4522574e-001  1.2999807e-001
  1.7426155e-001  1.6506075e-001
  1.9202424e-001  1.8786190e-001
  2.0246359e-001  2.0188150e-001
  2.1445886e-001  2.1684247e-001
  2.3412678e-001  2.3985039e-001
  2.5961369e-001  2.6935387e-001
  2.8221766e-001  2.9640748e-001
  2.9264770e-001  3.1171992e-001
  2.8728823e-001  3.1242590e-001
  2.6984300e-001  3.0326629e-001
  2.4738972e-001  2.9146420e-001
  2.2452811e-001  2.7999792e-001
  2.0032768e-001  2.6485434e-001
  1.7047512e-001  2.3858584e-001
  1.3253156e-001  1.9721216e-001
  8.9789585e-002  1.4474022e-001
  5.0349645e-002  9.1642404e-002
  2.1990176e-002  4.8328159e-002
  6.8372107e-003  1.8691335e-002
 -6.3072517e-005 -1.4751293e-003
 -7.0843764e-003 -2.0170644e-002
 -2.0018439e-002 -4.2535651e-002
 -3.8226261e-002 -6.7080462e-002
 -5.5642872e-002 -8.7445942e-002
 -6.5600807e-002 -9.7912691e-002
 -6.5725832e-002 -9.8130610e-002
 -5.9309581e-002 -9.3366623e-002
 -5.2512433e-002 -9.0387523e-002
 -4.9892032e-002 -9.2475853e-002
 -5.1765580e-002 -9.7620160e-002
 -5.5072993e-002 -1.0102871e-001
 -5.6586642e-002 -9.9649792e-002
 -5.5603644e-002 -9.4827275e-002
 -5.3932424e-002 -9.0894580e-002
 -5.3629130e-002 -9.1203328e-002
 -5.4696284e-002 -9.4997085e-002
 -5.4981557e-002 -9.7962100e-002
 -5.2363799e-002 -9.6056163e-002
 -4.7257455e-002 -8.9368784e-002
 -4.3027170e-002 -8.2672041e-002
 -4.3667239e-002 -8.1914631e-002
 -5.0497479e-002 -8.9421044e-002
 -6.0632675e-002 -1.0164518e-001
 -6.8646862e-002 -1.1142667e-001
 -7.0392920e-002 -1.1321012e-001
 -6.5978937e-002 -1.0710793e-001
 -5.9630520e-002 -9.8766449e-002
 -5.6452314e-002 -9.5053679e-002
 -5.8621257e-002 -9.8941356e-002
 -6.3966402e-002 -1.0751643e-001
 -6.8014140e-002 -1.1456382e-001
 -6.7757088e-002 -1.1554263e-001
 -6.4137740e-002 -1.1100988e-001
 -6.1235322e-002 -1.0586401e-001
 -6.2845704e-002 -1.0521125e-001
 -6.9247603e-002 -1.1026142e-001
 -7.6795826e-002 -1.1752274e-001
 -8.0692327e-002 -1.2183310e-001
 -7.8737709e-002 -1.2064105e-001
 -7.3049205e-002 -1.1603743e-001
 -6.8452043e-002 -1.1300706e-001
 -6.8845890e-002 -1.1545343e-001
 -7.4373589e-002 -1.2325200e-001
 -8.1556728e-002 -1.3268823e-001
 -8.6125105e-002 -1.3966625e-001
 -8.6141872e-002 -1.4283812e-001
 -8.2967366e-002 -1.4403789e-001
 -7.9524755e-002 -1.4587818e-001
 -7.7642048e-002 -1.4884380e-001
 -7.6834256e-002 -1.5068047e-001
 -7.5531177e-002 -1.4879094e-001
 -7.3373450e-002 -1.4339224e-001
 -7.2253060e-002 -1.3837938e-001
 -7.4877430e-002 -1.3860179e-001
 -8.1897453e-002 -1.4547052e-001
 -9.0252659e-002 -1.5470941e-001
 -9.4679884e-002 -1.5866885e-001
 -9.1642137e-002 -1.5191370e-001
 -8.2564235e-002 -1.3582678e-001
 -7.3425399e-002 -1.1818859e-001
 -7.0579613e-002 -1.0764527e-001
 -7.5709311e-002 -1.0700720e-001
 -8.4022383e-002 -1.1078034e-001
 -8.7518419e-002 -1.0922707e-001
 -8.1127390e-002 -9.6015424e-002
 -6.6934000e-002 -7.3387478e-002
 -5.2928541e-002 -5.0450621e-002
 -4.6803065e-002 -3.5632329e-002
 -4.9536828e-002 -2.9329405e-002
 -5.3982491e-002 -2.3160538e-002
 -5.0188021e-002 -7.2523081e-003
 -3.3530619e-002  2.0026895e-002
 -9.4787968e-003  4.7920746e-002
  9.2477493e-003  5.9236280e-002
  1.1401065e-002  4.2808887e-002
 -4.5941021e-003  3.2396476e-003
 -2.9428418e-002 -4.0486698e-002
 -4.9959447e-002 -6.7562153e-002
