 -3.8719551e-002 -3.8757256e-002
 -5.0310361e-002 -4.1617785e-002
 -5.8316530e-002 -4.4091823e-002
 -5.7378102e-002 -4.3854132e-002
 -4.7905587e-002 -4.0766635e-002
 -3.6092803e-002 -3.7334816e-002
 -2.9663724e-002 -3.6970397e-002
 -3.2513409e-002 -4.1376037e-002
 -4.2231497e-002 -4.9191995e-002
 -5.2174292e-002 -5.6820534e-002
 -5.6448325e-002 -6.0886853e-002
 -5.4043430e-002 -6.0249502e-002
 -4.8998477e-002 -5.6053040e-002
 -4.6886259e-002 -5.0140677e-002
 -5.0445480e-002 -4.3362420e-002
 -5.7841445e-002 -3.5462298e-002
 -6.4634608e-002 -2.6594122e-002
 -6.7593038e-002 -1.8869899e-002
 -6.7025120e-002 -1.6052540e-002
 -6.5883880e-002 -2.1003486e-002
 -6.6411054e-002 -3.2685181e-002
 -6.7449937e-002 -4.5361914e-002
 -6.4805668e-002 -5.1302384e-002
 -5.4457420e-002 -4.5510618e-002
 -3.6198786e-002 -2.9245306e-002
 -1.4575352e-002 -9.5492017e-003
  3.6377782e-003  5.0949356e-003
  1.3640237e-002  1.0169082e-002
  1.5359513e-002  7.6326512e-003
  1.2648157e-002  3.7633472e-003
  9.8851176e-003  4.0792726e-003
  8.6271358e-003  9.0991990e-003
  6.8612354e-003  1.4109990e-002
  1.2100532e-003  1.2936260e-002
 -9.8822134e-003  2.7414604e-003
 -2.4565418e-002 -1.3750024e-002
 -3.8680661e-002 -3.0146124e-002
 -4.8464317e-002 -4.0672710e-002
 -5.2656973e-002 -4.3527414e-002
 -5.2615008e-002 -4.1097082e-002
 -5.0899831e-002 -3.7443833e-002
 -4.9701709e-002 -3.5476878e-002
 -5.0300105e-002 -3.5984456e-002
 -5.3254535e-002 -3.8649706e-002
 -5.8341749e-002 -4.3154804e-002
 -6.3805889e-002 -4.8851951e-002
 -6.6070621e-002 -5.3405359e-002
 -6.1249099e-002 -5.2572411e-002
 -4.8746644e-002 -4.2909804e-002
 -3.4301709e-002 -2.6159948e-002
 -2.9086650e-002 -1.1406591e-002
 -4.3022214e-002 -1.1164576e-002
 -7.5190390e-002 -3.1809666e-002
 -1.0812248e-001 -6.4194283e-002
 -1.1212753e-001 -8.2417274e-002
 -6.0418210e-002 -5.5054096e-002
  5.2412069e-002  3.5418679e-002
  1.9998562e-001  1.7628496e-001
  3.3094657e-001  3.2352837e-001
  3.9173142e-001  4.1975201e-001
  3.5392180e-001  4.2289791e-001
  2.3043432e-001  3.2956857e-001
  7.0176004e-002  1.7834720e-001
 -6.6425504e-002  3.0302138e-002
 -1.3733779e-001 -6.2494415e-002
 -1.3710290e-001 -8.1919582e-002
 -9.3903451e-002 -4.8275651e-002
 -4.8850832e-002 -3.0341188e-003
 -3.1408594e-002  1.7909837e-002
 -4.5762158e-002  3.5302838e-003
 -7.4543811e-002 -3.1095830e-002
 -9.4844639e-002 -5.9813191e-002
 -9.4408954e-002 -6.4676834e-002
 -7.7541485e-002 -4.6375862e-002
 -5.8757820e-002 -2.0363462e-002
 -5.0579780e-002 -3.5669004e-003
 -5.4976110e-002 -2.3861022e-003
 -6.3844276e-002 -1.0178767e-002
 -6.6749156e-002 -1.4644947e-002
 -5.9142604e-002 -8.2942190e-003
 -4.4914542e-002  6.2347635e-003
 -3.2285407e-002  1.9220935e-002
 -2.7003721e-002  2.2148427e-002
 -2.8540357e-002  1.4235894e-002
 -3.1683584e-002  2.4959575e-003
 -3.1697014e-002 -4.2143375e-003
 -2.8270523e-002 -1.9384638e-003
 -2.5302055e-002  5.8988911e-003
 -2.6908792e-002  1.1873509e-002
 -3.3286335e-002  1.0722971e-002
 -3.9952996e-002  3.3402555e-003
 -4.0993223e-002 -4.1915886e-003
 -3.3646214e-002 -5.3142201e-003
 -2.0612596e-002  2.3340836e-003
 -8.3046297e-003  1.5686435e-002
 -2.3410425e-003  2.8970022e-002
 -3.8020752e-003  3.7857428e-002
 -8.7910346e-003  4.1900179e-002
 -1.1398260e-002  4.3867156e-002
 -7.8133050e-003  4.6947473e-002
  1.4460508e-003  5.2371485e-002
  1.2371078e-002  5.8960273e-002
  2.0450738e-002  6.4554675e-002
  2.3643929e-002  6.7833610e-002
  2.3379852e-002  6.9105845e-002
  2.3519742e-002  6.9930153e-002
  2.8162807e-002  7.2157929e-002
  3.9755422e-002  7.7345258e-002
  5.8100021e-002  8.6494404e-002
  8.0390506e-002  9.9690340e-002
  1.0201178e-001  1.1553521e-001
  1.1803905e-001  1.3089754e-001
  1.2517686e-001  1.4180084e-001
  1.2349633e-001  1.4546168e-001
  1.1687545e-001  1.4229794e-001
  1.1141393e-001  1.3622940e-001
  1.1204397e-001  1.3232186e-001
  1.1933390e-001  1.3303353e-001
  1.2853535e-001  1.3574759e-001
  1.3207684e-001  1.3383865e-001
  1.2408888e-001  1.2100788e-001
  1.0414592e-001  9.6163694e-002
  7.7733758e-002  6.5182477e-002
  5.2803877e-002  3.7868875e-002
  3.4864664e-002  2.1881198e-002
  2.3905881e-002  1.7874267e-002
  1.5369646e-002  1.9318954e-002
  4.2219963e-003  1.7351121e-002
 -1.0913299e-002  7.1414296e-003
 -2.6680278e-002 -8.8257620e-003
 -3.7574034e-002 -2.2757390e-002
 -4.0310594e-002 -2.7526879e-002
 -3.6397519e-002 -2.1936398e-002
 -3.1145776e-002 -1.1478579e-002
 -2.9951055e-002 -4.2074813e-003
 -3.4658890e-002 -4.9248442e-003
 -4.2777951e-002 -1.2096466e-002
 -4.9913911e-002 -1.9664563e-002
 -5.3196188e-002 -2.2020571e-002
 -5.3071469e-002 -1.8200977e-002
 -5.2183103e-002 -1.2127689e-002
 -5.2640285e-002 -9.0128912e-003
 -5.4084183e-002 -1.1031115e-002
 -5.4252451e-002 -1.5698400e-002
 -5.1449938e-002 -1.8195836e-002
 -4.6642369e-002 -1.5473657e-002
 -4.3126989e-002 -8.7296654e-003
 -4.3893134e-002 -2.2103103e-003
 -4.8742449e-002  5.3232535e-004
 -5.3738199e-002 -2.5315196e-004
 -5.3696305e-002 -7.3000641e-004
 -4.6022008e-002  3.1694335e-003
 -3.2900653e-002  1.2045384e-002
 -2.0018015e-002  2.2113657e-002
 -1.2725753e-002  2.7915698e-002
 -1.2461950e-002  2.6577709e-002
 -1.6117108e-002  2.0143774e-002
 -1.8743496e-002  1.4066289e-002
 -1.7431359e-002  1.3007670e-002
 -1.3231636e-002  1.7268996e-002
 -9.8285786e-003  2.2703677e-002
 -1.0112232e-002  2.4120238e-002
 -1.3615467e-002  1.9410331e-002
 -1.6901819e-002  1.1136481e-002
 -1.6647206e-002  4.3037555e-003
 -1.2699278e-002  2.3312920e-003
 -8.5683899e-003  4.3913741e-003
 -8.6172708e-003  6.4961379e-003
 -1.4260956e-002  5.1757002e-003
 -2.2330380e-002  6.3404060e-004
 -2.7079856e-002 -3.3415213e-003
 -2.4588859e-002 -2.7520516e-003
 -1.6162137e-002  2.7420753e-003
 -7.8368725e-003  8.9049210e-003
 -6.1194219e-003  9.9375291e-003
 -1.2931906e-002  3.2050949e-003
 -2.3683625e-002 -8.1684997e-003
 -3.0024344e-002 -1.7234538e-002
 -2.5676508e-002 -1.8462175e-002
 -1.1217385e-002 -1.2333620e-002
  5.7382756e-003 -5.4033680e-003
  1.5133350e-002 -5.3940779e-003
  1.0916987e-002 -1.4872565e-002
 -4.9974029e-003 -2.8388346e-002
 -2.3894957e-002 -3.5678770e-002
 -3.5511594e-002 -2.8873299e-002
 -3.4154887e-002 -8.9428748e-003
 -2.1619457e-002  1.3836820e-002
 -5.4616043e-003  2.5978123e-002
  5.7761620e-003  1.9552779e-002
  7.3617765e-003 -2.2688907e-003
  1.8806968e-004 -2.6949600e-002
 -1.0806290e-002 -4.0358420e-002
 -2.0206098e-002 -3.5651074e-002
 -2.5138386e-002 -1.7299048e-002
 -2.6095936e-002  2.1943641e-003
 -2.5643377e-002  1.0466889e-002
 -2.6118614e-002  2.9248599e-003
 -2.8026380e-002 -1.5023417e-002
 -2.9915526e-002 -3.2176718e-002
 -2.9565452e-002 -3.9027107e-002
 -2.5657481e-002 -3.3555638e-002
 -1.8749161e-002 -2.1775401e-002
 -1.1186338e-002 -1.3264925e-002
 -5.9320688e-003 -1.4875832e-002
 -4.9242793e-003 -2.6689525e-002
 -7.9008014e-003 -4.2541679e-002
 -1.2423244e-002 -5.4247771e-002
 -1.5199417e-002 -5.6631448e-002
 -1.4076070e-002 -5.0230610e-002
 -9.5010363e-003 -4.0253833e-002
 -4.3846592e-003 -3.2811106e-002
 -2.4011321e-003 -3.1021951e-002
 -5.6512932e-003 -3.3416054e-002
 -1.3146459e-002 -3.5385027e-002
 -2.1323588e-002 -3.2759998e-002
 -2.6182721e-002 -2.4875313e-002
 -2.5769502e-002 -1.5272829e-002
 -2.1262745e-002 -9.4884904e-003
 -1.6069266e-002 -1.1374829e-002
 -1.3570629e-002 -2.0302416e-002
 -1.5214464e-002 -3.1252741e-002
 -2.0217559e-002 -3.7845062e-002
 -2.6718651e-002 -3.6284112e-002
 -3.3329965e-002 -2.7724190e-002
 -3.9684410e-002 -1.7395153e-002
 -4.5561881e-002 -1.1046258e-002
 -4.9741647e-002 -1.1173917e-002
 -4.9777179e-002 -1.5684569e-002
 -4.3331101e-002 -1.9802757e-002
 -3.0201916e-002 -1.9841083e-002
 -1.3220095e-002 -1.5834965e-002
  2.7257878e-003 -1.1210996e-002
  1.3461832e-002 -9.6536124e-003
  1.7942706e-002 -1.1833947e-002
  1.8588836e-002 -1.4683020e-002
  1.9231489e-002 -1.3933947e-002
  2.2175853e-002 -8.0173894e-003
  2.6505625e-002 -1.1052477e-004
  2.8910258e-002  3.7024101e-003
  2.6095869e-002 -1.1460394e-003
  1.7089759e-002 -1.3859990e-002
  3.6119282e-003 -2.8372914e-002
 -1.1320230e-002 -3.7468581e-002
 -2.5180173e-002 -3.8026618e-002
 -3.6456416e-002 -3.3228119e-002
 -4.3943331e-002 -2.9925461e-002
 -4.6087432e-002 -3.3118730e-002
 -4.1727640e-002 -4.1920133e-002
 -3.2202420e-002 -5.0511987e-002
 -2.2688495e-002 -5.3437238e-002
 -2.0470288e-002 -5.0777928e-002
 -3.0229133e-002 -4.8657418e-002
 -4.9167415e-002 -5.3919504e-002
 -6.6354708e-002 -6.7036780e-002
 -6.8504206e-002 -7.9599338e-002
 -4.9507824e-002 -7.9593970e-002
 -1.7263698e-002 -6.1595157e-002
  8.4248263e-003 -3.3953553e-002
  7.6244100e-003 -1.5904328e-002
 -2.4577520e-002 -2.4237326e-002
 -7.0020770e-002 -5.7827412e-002
 -9.3588481e-002 -9.1496673e-002
 -6.2394520e-002 -8.6405783e-002
  3.2625783e-002 -1.3035939e-002
  1.6623068e-001  1.2662674e-001
  2.8754905e-001  2.9273492e-001
  3.4450778e-001  4.2340145e-001
  3.1053957e-001  4.6526006e-001
  1.9829942e-001  4.0151865e-001
  5.2608529e-002  2.6094854e-001
 -7.2916041e-002  1.0238697e-001
 -1.4163129e-001 -1.5855796e-002
 -1.4794462e-001 -6.3857649e-002
 -1.1343571e-001 -4.9885402e-002
 -6.9881730e-002 -8.5719468e-003
 -4.0995093e-002  2.2941192e-002
 -3.3272280e-002  2.5498411e-002
 -3.9056724e-002  3.7545969e-003
 -4.6775871e-002 -2.3265723e-002
 -4.9966051e-002 -3.8038937e-002
 -4.9502711e-002 -3.5547555e-002
 -4.9420316e-002 -2.3457776e-002
 -5.1401471e-002 -1.3760054e-002
 -5.2797942e-002 -1.3447101e-002
 -4.9377750e-002 -2.0855818e-002
 -3.9849432e-002 -2.9049769e-002
 -2.8027208e-002 -3.2273641e-002
 -2.0683990e-002 -3.0047308e-002
 -2.2772959e-002 -2.6300157e-002
 -3.3808065e-002 -2.5266998e-002
 -4.8090090e-002 -2.8014107e-002
 -5.8358810e-002 -3.2276267e-002
 -6.0033752e-002 -3.5056636e-002
 -5.3107035e-002 -3.5222317e-002
 -4.0852022e-002 -3.3784854e-002
 -2.7036178e-002 -3.1959001e-002
 -1.4025712e-002 -2.9343114e-002
 -2.9215712e-003 -2.4211336e-002
  5.1631293e-003 -1.5925744e-002
  8.5554545e-003 -7.0515083e-003
  6.1577889e-003 -2.7037961e-003
 -6.8454645e-004 -6.9411224e-003
 -7.5717356e-003 -1.8811489e-002
 -8.9661026e-003 -3.1483921e-002
 -1.7051441e-003 -3.5947228e-002
  1.2441039e-002 -2.7066707e-002
  2.7328534e-002 -7.7055606e-003
  3.6158625e-002  1.2404787e-002
  3.6005104e-002  2.2813715e-002
  3.0000203e-002  1.9301765e-002
  2.5457495e-002  6.7262805e-003
  2.9128455e-002 -4.2902605e-003
  4.2958267e-002 -4.5419592e-003
  6.3039857e-002  7.8000411e-003
  8.2445077e-002  2.6607135e-002
  9.5680407e-002  4.2738512e-002
  1.0192496e-001  5.0888476e-002
  1.0482559e-001  5.3069112e-002
  1.0956622e-001  5.6514376e-002
  1.1942004e-001  6.7758325e-002
  1.3406837e-001  8.7362005e-002
  1.5041955e-001  1.0927815e-001
  1.6479018e-001  1.2502340e-001
  1.7459550e-001  1.2946253e-001
  1.7853861e-001  1.2381116e-001
  1.7580682e-001  1.1393394e-001
  1.6539495e-001  1.0542776e-001
  1.4653502e-001  9.9484924e-002
  1.1988679e-001  9.2588319e-002
  8.8328901e-002  7.9960203e-002
  5.6388417e-002  5.9935433e-002
  2.8533958e-002  3.5787435e-002
  7.3039342e-003  1.3662470e-002
 -7.3803937e-003 -1.6264818e-003
 -1.7331166e-002 -9.6718320e-003
 -2.4401130e-002 -1.4048500e-002
 -2.9362222e-002 -1.9023700e-002
 -3.2080216e-002 -2.6117053e-002
 -3.2548917e-002 -3.3150307e-002
 -3.1960711e-002 -3.6580441e-002
 -3.2653377e-002 -3.5020301e-002
 -3.6922995e-002 -3.0939114e-002
 -4.5511179e-002 -2.9144158e-002
 -5.6844391e-002 -3.3004890e-002
 -6.7539915e-002 -4.1451505e-002
 -7.3970610e-002 -4.9223144e-002
 -7.3905492e-002 -5.0378650e-002
 -6.7494983e-002 -4.2639379e-002
 -5.7124454e-002 -2.9337755e-002
 -4.6486185e-002 -1.7510701e-002
 -3.9127424e-002 -1.3348307e-002
 -3.7045984e-002 -1.8169247e-002
 -3.9762495e-002 -2.7652946e-002
 -4.4216919e-002 -3.4780020e-002
 -4.5970427e-002 -3.4391378e-002
 -4.1402617e-002 -2.6325831e-002
 -3.0015724e-002 -1.5174005e-002
 -1.5389499e-002 -7.1066451e-003
 -3.8574718e-003 -5.9738941e-003
 -1.1732608e-003 -1.1252301e-002
 -8.9246652e-003 -1.8756107e-002
 -2.3083630e-002 -2.3339620e-002
 -3.5921758e-002 -2.1811732e-002
 -4.0608401e-002 -1.4297385e-002
 -3.5632033e-002 -3.7043478e-003
 -2.5984102e-002  5.9591355e-003
 -2.0096751e-002  1.1368442e-002
 -2.4051742e-002  1.1143471e-002
 -3.7016420e-002  6.1850387e-003
 -5.1031709e-002 -6.5640809e-004
 -5.5831199e-002 -5.6537085e-003
 -4.5651257e-002 -5.8219123e-003
 -2.3629804e-002 -5.4167395e-004
 -6.9127676e-004  7.6007940e-003
  1.0719626e-002  1.3693226e-002
  4.1622198e-003  1.3021231e-002
 -1.6842781e-002  4.0754429e-003
 -4.0889419e-002 -9.9656317e-003
 -5.5550090e-002 -2.2486179e-002
 -5.4522450e-002 -2.7051665e-002
 -4.0658415e-002 -2.1354312e-002
 -2.3252352e-002 -8.8585092e-003
 -1.1802235e-002  3.0777118e-003
 -1.0482221e-002  7.5844703e-003
 -1.6705023e-002  2.4272288e-003
 -2.4297484e-002 -8.8495589e-003
 -2.8360706e-002 -1.9389296e-002
 -2.8413771e-002 -2.3486979e-002
 -2.7734242e-002 -2.0034440e-002
 -2.9838836e-002 -1.2653342e-002
 -3.5164520e-002 -6.8613372e-003
 -4.0428012e-002 -6.2235918e-003
 -4.1206349e-002 -1.0373983e-002
 -3.5648989e-002 -1.6010117e-002
 -2.6369685e-002 -1.9740642e-002
 -1.9077737e-002 -2.0617282e-002
 -1.8797456e-002 -2.0352598e-002
 -2.6392133e-002 -2.1460966e-002
 -3.7855056e-002 -2.4920700e-002
 -4.6900039e-002 -2.9316639e-002
 -4.9010780e-002 -3.1946117e-002
 -4.4240688e-002 -3.1045354e-002
 -3.6905119e-002 -2.7154505e-002
 -3.2522313e-002 -2.2562662e-002
 -3.4166928e-002 -1.9459330e-002
 -4.0509249e-002 -1.8174901e-002
 -4.6866593e-002 -1.7162730e-002
 -4.8285262e-002 -1.4642212e-002
 -4.2610941e-002 -1.0503196e-002
 -3.1720613e-002 -6.8444706e-003
 -2.0370578e-002 -6.6241591e-003
 -1.3547697e-002 -1.1314613e-002
 -1.3943407e-002 -1.9501259e-002
 -2.0757979e-002 -2.7532610e-002
 -3.0261397e-002 -3.1812482e-002
 -3.7526053e-002 -3.1022310e-002
 -3.8599148e-002 -2.6729229e-002
 -3.2228778e-002 -2.1962400e-002
 -2.0579739e-002 -1.9017626e-002
 -8.6081758e-003 -1.8126020e-002
 -2.0226326e-003 -1.7899002e-002
 -4.5311604e-003 -1.6959341e-002
 -1.5695284e-002 -1.5436874e-002
 -3.0573476e-002 -1.4921893e-002
 -4.1897793e-002 -1.7224111e-002
 -4.3788460e-002 -2.2760881e-002
 -3.5196083e-002 -3.0142362e-002
 -2.0687873e-002 -3.6983638e-002
 -7.9350977e-003 -4.1356856e-002
 -3.2826521e-003 -4.2730544e-002
 -8.0538576e-003 -4.1802538e-002
 -1.8120309e-002 -3.9710707e-002
 -2.6912400e-002 -3.7391867e-002
 -2.9880753e-002 -3.5605137e-002
 -2.7322892e-002 -3.5239578e-002
 -2.3517959e-002 -3.7144133e-002
 -2.3076198e-002 -4.1325732e-002
 -2.7062808e-002 -4.6053849e-002
 -3.2110704e-002 -4.8119036e-002
 -3.2905787e-002 -4.4417100e-002
 -2.6491890e-002 -3.4262292e-002
 -1.4683057e-002 -2.0347108e-002
 -2.9898986e-003 -7.5024738e-003
  3.4256452e-003  4.0820831e-004
  3.5426877e-003  3.1718121e-003
  1.1952576e-003  4.4028102e-003
  1.9755556e-003  8.6790610e-003
  8.6929561e-003  1.7624904e-002
  1.8914983e-002  2.7953284e-002
  2.6438548e-002  3.3163862e-002
  2.5661364e-002  2.7975783e-002
  1.5469562e-002  1.2253513e-002
 -2.1934864e-004 -8.6154835e-003
 -1.5592821e-002 -2.7245776e-002
 -2.6982646e-002 -3.9005093e-002
 -3.4686271e-002 -4.4377707e-002
 -4.1160895e-002 -4.7085298e-002
 -4.7546836e-002 -4.9837555e-002
 -5.1841514e-002 -5.1477331e-002
 -5.0628190e-002 -4.8325212e-002
 -4.3069794e-002 -3.8783452e-002
 -3.3376992e-002 -2.7023109e-002
 -2.8862479e-002 -2.1682218e-002
 -3.4368394e-002 -2.9524799e-002
 -4.7333792e-002 -4.8563536e-002
 -5.8200476e-002 -6.6968164e-002
 -5.7062751e-002 -7.0225356e-002
 -4.2169068e-002 -5.2599672e-002
 -2.3448227e-002 -2.4341123e-002
 -1.6577724e-002 -7.3613064e-003
 -3.0428342e-002 -2.0105574e-002
 -5.6334230e-002 -6.0824693e-002
 -6.8309580e-002 -1.0181012e-001
 -3.6594569e-002 -1.0145231e-001
  5.2322679e-002 -2.9190478e-002
  1.8206115e-001  1.1144431e-001
  3.0922960e-001  2.7744088e-001
  3.8320978e-001  4.0434280e-001
  3.7206921e-001  4.3883896e-001
  2.7953883e-001  3.6725696e-001
  1.4268548e-001  2.2275781e-001
  1.2057498e-002  6.6955017e-002
 -7.3686853e-002 -4.2910810e-002
 -1.0377731e-001 -8.1663295e-002
 -9.3983821e-002 -6.3316186e-002
 -7.1216664e-002 -2.5581231e-002
 -5.5751647e-002 -3.8263999e-003
 -5.2168012e-002 -1.1336193e-002
 -5.2864957e-002 -3.6928300e-002
 -4.8956125e-002 -5.8509012e-002
 -3.9098938e-002 -6.1011435e-002
 -2.9979400e-002 -4.6039324e-002
 -2.9506533e-002 -2.7996273e-002
 -3.9208603e-002 -2.1509748e-002
 -5.2349292e-002 -3.0392282e-002
 -5.9126204e-002 -4.6014974e-002
 -5.4461128e-002 -5.5123048e-002
 -4.1937356e-002 -5.0326202e-002
 -3.0823281e-002 -3.5243353e-002
 -2.8857176e-002 -2.1101607e-002
 -3.6368174e-002 -1.7946264e-002
 -4.6597125e-002 -2.7577614e-002
 -5.1389252e-002 -4.2925098e-002
 -4.7817103e-002 -5.3818879e-002
 -4.0177320e-002 -5.4181418e-002
 -3.5970766e-002 -4.5368184e-002
 -3.9342532e-002 -3.3881620e-002
 -4.7264960e-002 -2.5886990e-002
 -5.1771258e-002 -2.3152326e-002
 -4.6338148e-002 -2.2981472e-002
 -3.1511164e-002 -2.1701585e-002
 -1.5175043e-002 -1.8221062e-002
 -7.1200149e-003 -1.4860836e-002
 -1.1954230e-002 -1.5072190e-002
 -2.5702686e-002 -2.0266327e-002
 -3.8522600e-002 -2.8429911e-002
 -4.1503182e-002 -3.5528899e-002
 -3.2504724e-002 -3.8309768e-002
 -1.6978003e-002 -3.6108511e-002
 -3.5466556e-003 -3.0342461e-002
  2.1229972e-003 -2.2434168e-002
  7.2306819e-004 -1.2196388e-002
 -2.1246042e-003  1.8414271e-003
 -4.6915963e-004  2.0402813e-002
  7.9207804e-003  4.1589272e-002
  2.0926500e-002  6.1005616e-002
  3.4627870e-002  7.4061104e-002
  4.6708777e-002  7.8978973e-002
  5.7776832e-002  7.8215261e-002
  7.0041616e-002  7.7286948e-002
  8.4756452e-002  8.1600009e-002
  1.0074249e-001  9.3320577e-002
  1.1511877e-001  1.1016805e-001
  1.2534232e-001  1.2662282e-001
  1.3066876e-001  1.3668041e-001
  1.3186536e-001  1.3648618e-001
  1.2973406e-001  1.2569063e-001
  1.2400174e-001  1.0712314e-001
  1.1365061e-001  8.5375701e-002
  9.8308835e-002  6.4745231e-002
  7.9337357e-002  4.7597489e-002
  5.9280963e-002  3.3520771e-002
  4.0123022e-002  1.9850090e-002
  2.1880621e-002  3.5667496e-003
  3.0823978e-003 -1.6249819e-002
 -1.7138760e-002 -3.6927751e-002
 -3.7004449e-002 -5.2943983e-002
 -5.2125226e-002 -5.9019691e-002
 -5.8102094e-002 -5.3917713e-002
 -5.3966944e-002 -4.2402671e-002
 -4.3734659e-002 -3.3416686e-002
 -3.4538371e-002 -3.5092657e-002
 -3.2452418e-002 -4.9555014e-002
 -3.8829444e-002 -7.1024947e-002
 -4.9887497e-002 -8.8937975e-002
 -5.9734895e-002 -9.4334347e-002
 -6.4552263e-002 -8.5395314e-002
 -6.4727159e-002 -6.8378338e-002
 -6.3591545e-002 -5.3259029e-002
 -6.4062266e-002 -4.7126005e-002
 -6.6146952e-002 -4.9957576e-002
 -6.7329624e-002 -5.5578653e-002
 -6.5487742e-002 -5.6966210e-002
 -6.1585040e-002 -5.1747895e-002
 -5.9631640e-002 -4.3759909e-002
 -6.3562894e-002 -3.9613382e-002
 -7.3553274e-002 -4.3024780e-002
 -8.4938368e-002 -5.1470345e-002
 -9.0965751e-002 -5.7808741e-002
 -8.7603408e-002 -5.5720702e-002
 -7.6710075e-002 -4.4862111e-002
 -6.4864484e-002 -3.1534695e-002
 -5.8594055e-002 -2.4240518e-002
 -5.9627198e-002 -2.7437939e-002
 -6.3809647e-002 -3.8241094e-002
 -6.4646737e-002 -4.8585542e-002
 -5.8755861e-002 -5.1274231e-002
 -4.8832998e-002 -4.5217798e-002
 -4.1826095e-002 -3.5983512e-002
 -4.3522578e-002 -3.1158091e-002
 -5.3819478e-002 -3.4273929e-002
 -6.6440951e-002 -4.1940273e-002
 -7.3531948e-002 -4.6503600e-002
 -7.1662899e-002 -4.2216818e-002
 -6.4522755e-002 -3.0151940e-002
 -6.0167592e-002 -1.8069389e-002
 -6.4729474e-002 -1.5127832e-002
 -7.7412298e-002 -2.5313173e-002
 -9.0606416e-002 -4.4379309e-002
 -9.5231994e-002 -6.2631999e-002
 -8.7248572e-002 -7.1331369e-002
 -7.0660585e-002 -6.8270485e-002
 -5.4742194e-002 -5.8583078e-002
 -4.7607456e-002 -5.0557667e-002
 -5.0955945e-002 -4.9832572e-002
 -5.9656547e-002 -5.6089478e-002
 -6.6146331e-002 -6.4304789e-002
 -6.6048503e-002 -6.9138869e-002
 -6.0799533e-002 -6.8810283e-002
 -5.5545027e-002 -6.5737817e-002
 -5.4474137e-002 -6.3958257e-002
 -5.7461412e-002 -6.5728584e-002
 -6.0678554e-002 -7.0213426e-002
 -6.0492436e-002 -7.4940956e-002
 -5.7144426e-002 -7.8591845e-002
 -5.5070257e-002 -8.2417521e-002
 -5.9369712e-002 -8.9049887e-002
 -7.1193878e-002 -9.9771159e-002
 -8.5719064e-002 -1.1242227e-001
 -9.4666302e-002 -1.2216237e-001
 -9.1637907e-002 -1.2443446e-001
 -7.6528754e-002 -1.1798673e-001
 -5.5821256e-002 -1.0570709e-001
 -3.8646075e-002 -9.2709784e-002
 -3.1332663e-002 -8.3103503e-002
 -3.4354993e-002 -7.8130016e-002
 -4.3253211e-002 -7.6593687e-002
 -5.2503090e-002 -7.7035974e-002
 -5.9252897e-002 -7.9416375e-002
 -6.4216155e-002 -8.4837561e-002
 -6.9610756e-002 -9.3531729e-002
 -7.6127975e-002 -1.0308765e-001
 -8.1560168e-002 -1.0870872e-001
 -8.2056595e-002 -1.0580727e-001
 -7.5080992e-002 -9.3256384e-002
 -6.1764199e-002 -7.4881115e-002
 -4.6881993e-002 -5.7764575e-002
 -3.6506033e-002 -4.8426116e-002
 -3.4898561e-002 -4.9227258e-002
 -4.2420853e-002 -5.7289494e-002
 -5.5564047e-002 -6.6476723e-002
 -6.8771385e-002 -7.0990781e-002
 -7.6913591e-002 -6.8326469e-002
 -7.7349028e-002 -6.0017747e-002
 -7.0757269e-002 -5.0206161e-002
 -6.0727430e-002 -4.3270718e-002
 -5.2183149e-002 -4.1860815e-002
 -4.9176889e-002 -4.6091840e-002
 -5.2819692e-002 -5.3722774e-002
 -6.0573398e-002 -6.1012397e-002
 -6.7454009e-002 -6.4033872e-002
 -6.8870626e-002 -6.0373806e-002
 -6.3547366e-002 -5.0624419e-002
 -5.4539811e-002 -3.8832485e-002
 -4.7424899e-002 -3.1044681e-002
 -4.6633381e-002 -3.2280306e-002
 -5.2282804e-002 -4.3423223e-002
 -5.9904680e-002 -6.0152164e-002
 -6.3337292e-002 -7.4972507e-002
 -5.9077371e-002 -8.1558487e-002
 -4.8800236e-002 -7.8554844e-002
 -3.8210411e-002 -7.0317476e-002
 -3.3006155e-002 -6.3841830e-002
 -3.4746477e-002 -6.3920693e-002
 -3.9815565e-002 -6.9899919e-002
 -4.2119462e-002 -7.6317261e-002
 -3.7513961e-002 -7.6934901e-002
 -2.6455083e-002 -6.9085987e-002
 -1.3228366e-002 -5.5335055e-002
 -2.3121500e-003 -4.1250280e-002
  4.8336175e-003 -3.1299681e-002
  1.0059820e-002 -2.6156385e-002
  1.5744799e-002 -2.3389035e-002
  2.1565542e-002 -2.0700580e-002
  2.3906113e-002 -1.8665785e-002
  1.8645680e-002 -2.0545645e-002
  5.3309247e-003 -2.9054106e-002
 -1.1048244e-002 -4.2953033e-002
 -2.2712611e-002 -5.6643593e-002
 -2.4486320e-002 -6.3532118e-002
 -1.7773481e-002 -6.0787156e-002
 -9.8414501e-003 -5.1659173e-002
 -8.3929659e-003 -4.3172200e-002
 -1.5684713e-002 -4.0890141e-002
 -2.6700419e-002 -4.4727518e-002
 -3.3361282e-002 -4.9516034e-002
 -3.1485961e-002 -4.9942598e-002
 -2.4862483e-002 -4.5782494e-002
 -2.2631856e-002 -4.2622212e-002
 -3.1441674e-002 -4.6847086e-002
 -4.8650255e-002 -5.8692023e-002
 -6.2506006e-002 -6.9541453e-002
 -6.0508044e-002 -6.7182569e-002
 -4.0139433e-002 -4.6184322e-002
 -1.3333323e-002 -1.5502532e-002
  2.2770874e-004  4.1319598e-003
 -1.2143417e-002 -6.1572538e-003
 -4.3489389e-002 -4.6714411e-002
 -6.6777928e-002 -9.1806274e-002
 -4.9471314e-002 -9.9214541e-002
  2.4797786e-002 -3.3946921e-002
  1.4134117e-001  1.0733908e-001
  2.5711969e-001  2.8702655e-001
  3.2126636e-001  4.4043936e-001
  3.0206960e-001  5.0690492e-001
  2.0442948e-001  4.6082666e-001
  6.7389786e-002  3.2481752e-001
 -5.6436302e-002  1.5737605e-001
 -1.2727536e-001  2.2433222e-002
 -1.3516105e-001 -4.1514668e-002
 -9.9117592e-002 -3.5742765e-002
 -5.1484460e-002  7.0247627e-003
 -1.8527206e-002  4.6050535e-002
 -9.0161108e-003  5.5883528e-002
 -1.5530472e-002  3.6417052e-002
 -2.4700682e-002  6.3550510e-003
 -2.7794964e-002 -1.2745152e-002
 -2.4851624e-002 -1.0502578e-002
 -2.1330619e-002  8.3190134e-003
 -2.1758861e-002  3.0176224e-002
 -2.5851204e-002  4.3111181e-002
 -2.9624587e-002  4.3674846e-002
 -2.9606269e-002  3.6746396e-002
 -2.6036404e-002  3.0090963e-002
 -2.2490252e-002  2.8487175e-002
 -2.2522979e-002  3.1474952e-002
 -2.6371870e-002  3.5186265e-002
 -3.0616235e-002  3.5949269e-002
 -3.0847346e-002  3.2712250e-002
 -2.5238239e-002  2.6946980e-002
 -1.5962197e-002  2.1075735e-002
 -7.6072438e-003  1.6971023e-002
 -3.8753796e-003  1.5623472e-002
 -5.2060467e-003  1.7519278e-002
 -8.8759794e-003  2.2871664e-002
 -1.1256946e-002  3.1146965e-002
 -1.0177514e-002  4.0626206e-002
 -5.8057188e-003  4.8723310e-002
  2.9701230e-004  5.3245252e-002
  6.7352387e-003  5.3850660e-002
  1.2868582e-002  5.2264701e-002
  1.8315159e-002  5.1038352e-002
  2.2119739e-002  5.1650769e-002
  2.2862951e-002  5.3547579e-002
  2.0003624e-002  5.5029431e-002
  1.5215957e-002  5.5318909e-002
  1.2355490e-002  5.6000746e-002
  1.5584819e-002  6.0400672e-002
  2.6643444e-002  7.1037344e-002
  4.3411603e-002  8.7066856e-002
  6.1083808e-002  1.0389387e-001
  7.5319819e-002  1.1566316e-001
  8.5301470e-002  1.1923721e-001
  9.4284932e-002  1.1671104e-001
  1.0710353e-001  1.1445587e-001
  1.2636960e-001  1.1910554e-001
  1.4995960e-001  1.3299815e-001
  1.7180363e-001  1.5231120e-001
  1.8543739e-001  1.6919328e-001
  1.8795715e-001  1.7651003e-001
  1.8161328e-001  1.7204610e-001
  1.7198429e-001  1.5947556e-001
  1.6403243e-001  1.4555209e-001
  1.5875529e-001  1.3564098e-001
  1.5277591e-001  1.3068762e-001
  1.4098444e-001  1.2740121e-001
  1.2042541e-001  1.2123700e-001
  9.2747647e-002  1.0979836e-001
  6.3654300e-002  9.4307939e-002
  3.9758790e-002  7.8351403e-002
  2.4910675e-002  6.5091467e-002
  1.8301625e-002  5.5170850e-002
  1.5290856e-002  4.6715913e-002
  1.0359615e-002  3.7308797e-002
  3.8435688e-004  2.6381706e-002
 -1.3784860e-002  1.6102872e-002
 -2.7953598e-002  1.0262832e-002
 -3.7199381e-002  1.1731932e-002
 -3.8771953e-002  2.0238066e-002
 -3.3741985e-002  3.1948977e-002
 -2.6645572e-002  4.1078049e-002
 -2.3115191e-002  4.2758067e-002
 -2.6780890e-002  3.5527669e-002
 -3.6991523e-002  2.2168033e-002
 -4.8705242e-002  8.4031071e-003
 -5.4899290e-002  1.2694620e-004
 -5.0281880e-002  5.4050707e-004
 -3.4600785e-002  8.5451442e-003
 -1.3417177e-002  1.9364654e-002
  4.2873284e-003  2.7064556e-002
  1.0754782e-002  2.7911857e-002
  3.7565095e-003  2.2495880e-002
 -1.1891143e-002  1.5447015e-002
 -2.6755420e-002  1.2692887e-002
 -3.1889135e-002  1.7693978e-002
 -2.3893373e-002  2.8865313e-002
 -6.7778121e-003  4.0109282e-002
  1.0401542e-002  4.4267761e-002
  1.8812947e-002  3.7596087e-002
  1.5009771e-002  2.2438531e-002
  2.6236307e-003  6.0906328e-003
 -1.0084682e-002 -3.5074870e-003
 -1.5377977e-002 -2.7140646e-003
 -1.0545805e-002  5.5783045e-003
  9.5778968e-004  1.3932516e-002
  1.2310433e-002  1.5451863e-002
  1.7941484e-002  8.4220626e-003
  1.6961860e-002 -2.5992853e-003
  1.3171798e-002 -1.0129947e-002
  1.1780471e-002 -9.2677421e-003
  1.5344693e-002 -1.3997121e-003
  2.1695388e-002  6.5515377e-003
  2.5373667e-002  6.9890432e-003
  2.1549370e-002 -2.7359431e-003
  9.7152794e-003 -1.7998598e-002
 -5.5069542e-003 -2.9750979e-002
 -1.6971997e-002 -3.0588053e-002
 -1.9428159e-002 -2.0033985e-002
 -1.2787586e-002 -5.1509001e-003
 -2.0311531e-003  4.1120180e-003
  6.1638551e-003  1.6794735e-003
  7.7087886e-003 -1.0494134e-002
  3.5164098e-003 -2.3710361e-002
 -1.5520471e-003 -2.8529847e-002
 -2.3256043e-003 -2.1247940e-002
  2.9574318e-003 -6.4287454e-003
  1.1403570e-002  6.2292508e-003
  1.7476663e-002  8.4960828e-003
  1.6761653e-002 -9.6818655e-004
  8.8736711e-003 -1.6012485e-002
 -2.3209947e-003 -2.7439823e-002
 -1.1308059e-002 -2.9230727e-002
 -1.4304430e-002 -2.2093971e-002
 -1.1299591e-002 -1.2160529e-002
 -5.5407018e-003 -6.1181668e-003
 -1.0233612e-003 -6.3892255e-003
  4.2193876e-005 -1.0011040e-002
 -1.8082583e-003 -1.1650187e-002
 -4.2610407e-003 -8.2363209e-003
 -5.1450559e-003 -1.5649850e-003
 -3.7787999e-003  3.0930197e-003
 -1.1049272e-003  1.0373609e-003
  1.3267255e-003 -8.2040812e-003
  2.3709320e-003 -2.0569605e-002
  1.6312237e-003 -3.0525356e-002
 -8.7328179e-004 -3.5073772e-002
 -5.1091315e-003 -3.5580412e-002
 -1.0990922e-002 -3.5974174e-002
 -1.7939605e-002 -3.9034698e-002
 -2.4654133e-002 -4.3885600e-002
 -2.9526734e-002 -4.6640234e-002
 -3.1565156e-002 -4.3798237e-002
 -3.1065699e-002 -3.5582800e-002
 -2.9445486e-002 -2.6421269e-002
 -2.8047846e-002 -2.1893282e-002
 -2.6994166e-002 -2.4599113e-002
 -2.4931659e-002 -3.2048674e-002
 -2.0162828e-002 -3.8466210e-002
 -1.2311190e-002 -3.9170879e-002
 -3.2247574e-003 -3.4201043e-002
  3.7919004e-003 -2.8259194e-002
  5.8956781e-003 -2.7022712e-002
  2.5587937e-003 -3.2521696e-002
 -4.0681837e-003 -4.1307014e-002
 -1.0581750e-002 -4.6936845e-002
 -1.4335477e-002 -4.4866018e-002
 -1.4720404e-002 -3.6119495e-002
 -1.2719905e-002 -2.6742035e-002
 -9.5344833e-003 -2.3465386e-002
 -5.5914270e-003 -2.8807140e-002
 -8.1898069e-004 -3.9352587e-002
  4.1986457e-003 -4.8449606e-002
  7.5079852e-003 -5.1265860e-002
  6.7042263e-003 -4.8254956e-002
  1.1519610e-003 -4.4413360e-002
 -6.3909115e-003 -4.5133674e-002
 -1.0355468e-002 -5.1859289e-002
 -5.4520397e-003 -6.0978979e-002
  9.6612747e-003 -6.6632860e-002
  3.0873822e-002 -6.5033193e-002
  5.0744714e-002 -5.6907255e-002
  6.3062809e-002 -4.6189078e-002
  6.6621329e-002 -3.6521570e-002
  6.5407642e-002 -2.8533329e-002
  6.4974811e-002 -2.0378112e-002
  6.7758392e-002 -1.0742417e-002
  7.1001856e-002 -1.5505008e-003
  6.9037798e-002  2.4059085e-003
  5.8244511e-002 -2.9987190e-003
  4.0649688e-002 -1.7407893e-002
  2.3122901e-002 -3.5233426e-002
  1.2493601e-002 -4.9089656e-002
  1.0339861e-002 -5.4898249e-002
  1.1688356e-002 -5.4551506e-002
  9.0290059e-003 -5.3785900e-002
 -1.3914657e-003 -5.6890878e-002
 -1.5965536e-002 -6.2687666e-002
 -2.6057782e-002 -6.5482069e-002
 -2.4730095e-002 -6.0499911e-002
 -1.2670171e-002 -4.9380202e-002
  1.7005289e-003 -4.0464923e-002
  8.5652317e-003 -4.2689838e-002
  4.6141612e-003 -5.7474577e-002
 -3.9663178e-003 -7.5493678e-002
 -6.5850488e-003 -8.2375368e-002
  2.1053399e-003 -7.0103287e-002
  1.5854396e-002 -4.5579839e-002
  2.0145648e-002 -2.8241859e-002
  4.4781564e-003 -3.6085283e-002
 -2.4855062e-002 -6.8843911e-002
 -4.2135467e-002 -1.0112036e-001
 -1.4530748e-002 -9.3229624e-002
  7.6313732e-002 -1.5570283e-002
  2.1681554e-001  1.2811138e-001
  3.6118906e-001  2.9487129e-001
  4.5112276e-001  4.2045470e-001
  4.4543841e-001  4.5218472e-001
  3.4262388e-001  3.7777648e-001
  1.8251221e-001  2.3238554e-001
  2.5851914e-002  7.9319937e-002
 -7.6374678e-002 -2.3987711e-002
 -1.0600955e-001 -5.4301551e-002
 -8.0934157e-002 -2.9199004e-002
 -3.8780537e-002  9.9335008e-003
 -1.2911700e-002  2.5855146e-002
 -1.5566162e-002  6.3164594e-003
 -3.6670372e-002 -3.3792737e-002
 -5.6223378e-002 -6.7586682e-002
 -5.9753959e-002 -7.6107557e-002
 -4.6781537e-002 -5.9630487e-002
 -2.8110425e-002 -3.4268867e-002
 -1.6117293e-002 -1.8574763e-002
 -1.5959561e-002 -2.0883271e-002
 -2.3498033e-002 -3.5755963e-002
 -3.0027260e-002 -5.0430532e-002
 -2.9191098e-002 -5.4946875e-002
 -2.0896432e-002 -4.8298938e-002
 -1.0034886e-002 -3.6941685e-002
 -2.2026758e-003 -2.8428929e-002
 -1.6414168e-006 -2.5842868e-002
 -2.3916561e-003 -2.7005416e-002
 -6.5212983e-003 -2.7975562e-002
 -1.0065758e-002 -2.7023930e-002
 -1.1946331e-002 -2.5458448e-002
 -1.1627711e-002 -2.5132994e-002
 -8.4648144e-003 -2.5513117e-002
 -2.1585912e-003 -2.3503129e-002
  6.0114068e-003 -1.6487539e-002
  1.2892538e-002 -5.7265873e-003
  1.4845452e-002  3.1618097e-003
  1.0562308e-002  3.9144115e-003
  2.7694033e-003 -5.2291357e-003
 -2.6989211e-003 -1.9081905e-002
 -4.5664193e-004 -2.8246116e-002
  1.0600122e-002 -2.5488601e-002
  2.6118186e-002 -1.1048466e-002
  3.8981885e-002  7.3002495e-003
  4.4083393e-002  1.9787427e-002
  4.1805790e-002  2.1737921e-002
  3.7719399e-002  1.6980074e-002
  3.8625190e-002  1.4869006e-002
  4.7839216e-002  2.3106178e-002
  6.3165023e-002  4.1747349e-002
  7.9018078e-002  6.2967335e-002
  9.0818212e-002  7.6793498e-002
  9.8457406e-002  7.8609629e-002
  1.0609107e-001  7.2767398e-002
  1.1850635e-001  6.9501876e-002
  1.3705014e-001  7.7501864e-002
  1.5801210e-001  9.7429871e-002
  1.7487698e-001  1.2116999e-001
  1.8260594e-001  1.3722643e-001
  1.8072703e-001  1.3830475e-001
  1.7304495e-001  1.2565411e-001
  1.6423446e-001  1.0727249e-001
  1.5609324e-001  9.1657087e-002
  1.4620043e-001  8.1849496e-002
  1.3004788e-001  7.4041018e-002
  1.0507738e-001  6.1475182e-002
  7.3465108e-002  4.0370214e-002
  4.1678150e-002  1.3304793e-002
  1.6942536e-002 -1.2388977e-002
  3.1325133e-003 -2.9827686e-002
 -1.2248427e-003 -3.7433742e-002
 -1.5545198e-003 -3.9814166e-002
 -3.5512474e-003 -4.4130139e-002
 -9.7303148e-003 -5.4704816e-002
 -1.8379115e-002 -6.9928191e-002
 -2.5307715e-002 -8.3468691e-002
 -2.7038465e-002 -8.8888995e-002
 -2.3167648e-002 -8.4175687e-002
 -1.6494470e-002 -7.3056426e-002
 -1.1086084e-002 -6.2378887e-002
 -9.7666325e-003 -5.7610079e-002
 -1.2647752e-002 -5.9685084e-002
 -1.7589007e-002 -6.5263569e-002
 -2.1959741e-002 -6.9796210e-002
 -2.4495223e-002 -7.0971086e-002
 -2.5811058e-002 -6.9949742e-002
 -2.7480627e-002 -6.9749557e-002
 -3.0329057e-002 -7.2246513e-002
 -3.3328224e-002 -7.6196317e-002
 -3.3992161e-002 -7.7983056e-002
 -3.0162035e-002 -7.4484131e-002
 -2.1875352e-002 -6.5859915e-002
 -1.2108557e-002 -5.6213069e-002
 -5.4546974e-003 -5.1229257e-002
 -5.4634664e-003 -5.4456842e-002
 -1.2249070e-002 -6.4685084e-002
 -2.2123432e-002 -7.6347528e-002
 -2.9632769e-002 -8.2685657e-002
 -3.0924045e-002 -7.9966741e-002
 -2.6165456e-002 -6.9758871e-002
 -1.9325985e-002 -5.7856566e-002
 -1.5419825e-002 -5.0621155e-002
 -1.6892361e-002 -5.0841636e-002
 -2.2035624e-002 -5.6147744e-002
 -2.6347858e-002 -6.0815320e-002
 -2.6089522e-002 -5.9785170e-002
 -2.1255614e-002 -5.2214945e-002
 -1.5644599e-002 -4.2119079e-002
 -1.3852185e-002 -3.5643990e-002
 -1.7322444e-002 -3.6850515e-002
 -2.2717324e-002 -4.4961572e-002
 -2.4107965e-002 -5.4896915e-002
 -1.7633721e-002 -6.0729893e-002
 -5.1017175e-003 -5.9683916e-002
  6.4944321e-003 -5.3761663e-002
  9.6185980e-003 -4.8000593e-002
  1.7678959e-003 -4.6624118e-002
 -1.2155451e-002 -4.9951909e-002
 -2.2881643e-002 -5.4364132e-002
 -2.3435648e-002 -5.5457339e-002
 -1.4482335e-002 -5.1816441e-002
 -4.4111010e-003 -4.6716659e-002
 -3.5125177e-003 -4.6019167e-002
 -1.6418498e-002 -5.3828227e-002
 -3.8096908e-002 -6.8818298e-002
 -5.6777104e-002 -8.4294951e-002
 -6.1843107e-002 -9.2101464e-002
 -5.1181076e-002 -8.7866766e-002
 -3.2690697e-002 -7.4010255e-002
 -1.8731320e-002 -5.8290926e-002
 -1.7461723e-002 -4.8934353e-002
 -2.7388774e-002 -4.9665892e-002
 -3.8930362e-002 -5.7986826e-002
 -4.1810109e-002 -6.7766169e-002
 -3.2608026e-002 -7.3821430e-002
 -1.7051170e-002 -7.5267908e-002
 -5.3050495e-003 -7.5166884e-002
 -4.1888558e-003 -7.7167179e-002
 -1.2005562e-002 -8.1694461e-002
 -2.0142558e-002 -8.5144455e-002
 -1.9939425e-002 -8.2557993e-002
 -9.5029411e-003 -7.1821038e-002
  4.7671706e-003 -5.6065588e-002
  1.2937703e-002 -4.2346320e-002
  9.1265154e-003 -3.7181706e-002
 -4.2062324e-003 -4.2405660e-002
 -1.8107769e-002 -5.3988333e-002
 -2.3828571e-002 -6.4825010e-002
 -1.9030480e-002 -6.9345630e-002
 -8.9075176e-003 -6.6756003e-002
 -1.6752701e-003 -6.0791982e-002
 -2.1433906e-003 -5.6534908e-002
 -8.3965610e-003 -5.6844244e-002
 -1.4101206e-002 -6.0913396e-002
 -1.4161890e-002 -6.5663320e-002
 -9.1184951e-003 -6.8449403e-002
 -4.6227510e-003 -6.8819414e-002
 -6.5881589e-003 -6.8176044e-002
 -1.6013593e-002 -6.7999576e-002
 -2.7816439e-002 -6.8429019e-002
 -3.4707213e-002 -6.8481652e-002
 -3.2978700e-002 -6.7543199e-002
 -2.5553728e-002 -6.6621086e-002
 -1.9681903e-002 -6.7833714e-002
 -2.1225941e-002 -7.2528023e-002
 -2.9981203e-002 -7.9466338e-002
 -3.9855033e-002 -8.4863484e-002
 -4.3847145e-002 -8.4685198e-002
 -3.9719914e-002 -7.7492421e-002
 -3.1877643e-002 -6.5762758e-002
 -2.7760747e-002 -5.4462988e-002
 -3.1745611e-002 -4.7870381e-002
 -4.1303245e-002 -4.6900976e-002
 -4.8834065e-002 -4.8952280e-002
 -4.7746523e-002 -5.0252432e-002
 -3.8034640e-002 -4.8759588e-002
 -2.6744131e-002 -4.5245030e-002
 -2.2894260e-002 -4.1995973e-002
 -3.0486987e-002 -4.0326856e-002
 -4.5186521e-002 -3.9243643e-002
 -5.7266513e-002 -3.6445345e-002
 -5.8651725e-002 -3.0841640e-002
 -4.8710334e-002 -2.4257296e-002
 -3.4449387e-002 -2.0677978e-002
 -2.4994806e-002 -2.3273183e-002
 -2.4801280e-002 -3.1625385e-002
 -3.0772739e-002 -4.1528595e-002
 -3.5395920e-002 -4.7733275e-002
 -3.3194520e-002 -4.7624591e-002
 -2.5230931e-002 -4.2883412e-002
 -1.8125775e-002 -3.7734353e-002
 -1.8372831e-002 -3.5143923e-002
 -2.6702985e-002 -3.4196983e-002
 -3.6902634e-002 -3.0875118e-002
 -4.0284654e-002 -2.1865759e-002
 -3.2150182e-002 -8.1295302e-003
 -1.5324455e-002  4.9171447e-003
  2.0559454e-003  1.1292438e-002
  1.2502182e-002  9.3900055e-003
  1.4227950e-002  3.9545592e-003
  1.1344532e-002  2.9276111e-003
  9.4790487e-003  1.1236161e-002
  1.0647833e-002  2.6265912e-002
  1.1666424e-002  3.8880455e-002
  7.4580356e-003  3.9804516e-002
 -3.8407989e-003  2.6695200e-002
 -1.8293111e-002  6.4891971e-003
 -2.8721399e-002 -9.2542581e-003
 -3.0214491e-002 -1.2603164e-002
 -2.4188282e-002 -5.0171959e-003
 -1.7397157e-002  4.0300493e-003
 -1.6631265e-002  4.6220937e-003
 -2.3409639e-002 -5.6658869e-003
 -3.3052032e-002 -1.9792911e-002
 -3.9050053e-002 -2.7099538e-002
 -3.8838756e-002 -2.2337533e-002
 -3.5985344e-002 -1.0561241e-002
 -3.6538699e-002 -3.4966175e-003
 -4.2729472e-002 -9.8543833e-003
 -4.9842569e-002 -2.7410008e-002
 -4.9854692e-002 -4.3708253e-002
 -3.9631790e-002 -4.5765537e-002
 -2.6588099e-002 -3.1492790e-002
 -2.5362600e-002 -1.2985117e-002
 -4.5853313e-002 -7.5375963e-003
 -8.0469188e-002 -2.1672348e-002
 -1.0153921e-001 -4.0349764e-002
 -7.4097221e-002 -3.1488781e-002
  2.1479973e-002  3.4420302e-002
  1.7114204e-001  1.6134777e-001
  3.2672916e-001  3.1739018e-001
  4.2672281e-001  4.4629417e-001
  4.2782981e-001  4.9592158e-001
  3.2886692e-001  4.4697961e-001
  1.7207366e-001  3.2405538e-001
  2.0797679e-002  1.8192666e-001
 -7.3417660e-002  7.5304745e-002
 -9.4654403e-002  3.0955319e-002
 -6.4558730e-002  3.8310898e-002
 -2.3329441e-002  6.2709320e-002
 -3.5426547e-003  7.0683872e-002
 -1.3474098e-002  5.0141201e-002
 -3.8521577e-002  1.3550714e-002
 -5.6677120e-002 -1.5401042e-002
 -5.5595119e-002 -2.0435595e-002
 -3.9557016e-002 -3.1765504e-003
 -2.3364584e-002  2.0431769e-002
 -1.9479571e-002  3.3381012e-002
 -2.8984313e-002  2.9564739e-002
 -4.2194132e-002  1.6236948e-002
 -4.7330937e-002  6.3048180e-003
 -3.9828789e-002  7.4359895e-003
 -2.5126173e-002  1.6660043e-002
 -1.3610579e-002  2.3959164e-002
 -1.2308466e-002  2.1175178e-002
 -2.0021381e-002  8.8777902e-003
 -2.9012497e-002 -3.9754487e-003
 -3.1422010e-002 -7.0049454e-003
 -2.4934405e-002  3.7647495e-003
 -1.3679366e-002  2.3068302e-002
 -4.2449876e-003  4.0407222e-002
 -6.3471057e-004  4.7406655e-002
 -2.1024411e-003  4.3028940e-002
 -5.1567552e-003  3.3128527e-002
 -7.2657204e-003  2.5483214e-002
 -8.9259382e-003  2.4377306e-002
 -1.2351277e-002  2.8700700e-002
 -1.8309701e-002  3.4239717e-002
 -2.4280535e-002  3.7650726e-002
 -2.5781111e-002  3.8785454e-002
 -2.0006058e-002  3.9827416e-002
 -8.5018764e-003  4.2710452e-002
  3.5054333e-003  4.7347594e-002
  1.0880008e-002  5.2187232e-002
  1.2583877e-002  5.6406808e-002
  1.2480478e-002  6.1328501e-002
  1.6331659e-002  6.9689649e-002
  2.7219998e-002  8.3202085e-002
  4.3147075e-002  1.0058470e-001
  5.8670769e-002  1.1789932e-001
  6.9352186e-002  1.3112412e-001
  7.5325026e-002  1.3888388e-001
  8.1074433e-002  1.4312909e-001
  9.1534195e-002  1.4722037e-001
  1.0772156e-001  1.5304573e-001
  1.2550966e-001  1.5951199e-001
  1.3865648e-001  1.6365051e-001
  1.4380657e-001  1.6339852e-001
  1.4312954e-001  1.5947140e-001
  1.4245890e-001  1.5477726e-001
  1.4608038e-001  1.5173359e-001
  1.5236653e-001  1.4973862e-001
  1.5391167e-001  1.4509811e-001
  1.4272394e-001  1.3374879e-001
  1.1661106e-001  1.1463998e-001
  8.2003808e-002  9.1198181e-002
  5.0605513e-002  6.9370382e-002
  3.2045542e-002  5.3716927e-002
  2.7622454e-002  4.4383576e-002
  2.9789181e-002  3.7309122e-002
  2.7732861e-002  2.7492829e-002
  1.5147276e-002  1.2796146e-002
 -5.4555593e-003 -4.5409308e-003
 -2.4977022e-002 -1.9830768e-002
 -3.4686795e-002 -2.9659318e-002
 -3.2740998e-002 -3.4354177e-002
 -2.5513859e-002 -3.7502146e-002
 -2.2721337e-002 -4.2705218e-002
 -3.0216398e-002 -5.0386920e-002
 -4.5614929e-002 -5.7172784e-002
 -6.0088186e-002 -5.8469858e-002
 -6.4777833e-002 -5.2211523e-002
 -5.7253485e-002 -4.1089025e-002
 -4.3133366e-002 -3.1192794e-002
 -3.2017272e-002 -2.8242597e-002
 -3.0783429e-002 -3.3834273e-002
 -3.9033259e-002 -4.4401885e-002
 -4.9876142e-002 -5.3501501e-002
 -5.5126460e-002 -5.5718485e-002
 -5.0986057e-002 -4.9563775e-002
 -4.0258416e-002 -3.7750555e-002
 -2.9816463e-002 -2.5017655e-002
 -2.5621959e-002 -1.5418101e-002
 -2.9007980e-002 -1.0728294e-002
 -3.6650117e-002 -1.0651987e-002
 -4.3708295e-002 -1.3986075e-002
 -4.7341741e-002 -1.9571266e-002
 -4.7916639e-002 -2.6269476e-002
 -4.7449827e-002 -3.2621651e-002
 -4.6972088e-002 -3.6765284e-002
 -4.5338580e-002 -3.7169541e-002
 -4.0418918e-002 -3.3609185e-002
 -3.1676576e-002 -2.7583166e-002
 -2.1553061e-002 -2.1550894e-002
 -1.4367963e-002 -1.7602947e-002
 -1.3337499e-002 -1.6439201e-002
 -1.8112946e-002 -1.7481766e-002
 -2.4859092e-002 -1.9963307e-002
 -2.8983541e-002 -2.3973944e-002
 -2.8459546e-002 -3.0437164e-002
 -2.5137866e-002 -3.9921505e-002
 -2.2958065e-002 -5.1195930e-002
 -2.4447953e-002 -6.0923859e-002
 -2.8337645e-002 -6.5091793e-002
 -3.0315342e-002 -6.1454010e-002
 -2.6511842e-002 -5.1403912e-002
 -1.7092206e-002 -3.9810444e-002
 -6.9448132e-003 -3.2567018e-002
 -2.6593131e-003 -3.3244266e-002
 -7.8032651e-003 -4.0840028e-002
 -2.0017287e-002 -5.0318952e-002
 -3.2182947e-002 -5.5477996e-002
 -3.7219089e-002 -5.2735687e-002
 -3.2937718e-002 -4.3406999e-002
 -2.3655403e-002 -3.3095199e-002
 -1.7101553e-002 -2.8309026e-002
 -1.8849519e-002 -3.2373799e-002
 -2.8334186e-002 -4.3112215e-002
 -3.9284514e-002 -5.3801082e-002
 -4.4319930e-002 -5.6971704e-002
 -4.0340830e-002 -4.8903552e-002
 -3.0812685e-002 -3.2137397e-002
 -2.3282703e-002 -1.4383086e-002
 -2.3912714e-002 -4.2801623e-003
 -3.2976985e-002 -6.4495532e-003
 -4.4597385e-002 -1.8786603e-002
 -5.0717577e-002 -3.3684244e-002
 -4.6492784e-002 -4.2520647e-002
 -3.3328184e-002 -4.0765539e-002
 -1.7576622e-002 -3.0565567e-002
 -6.1448174e-003 -1.9170628e-002
 -2.3193870e-003 -1.4252929e-002
 -4.6519356e-003 -1.9129627e-002
 -9.2074748e-003 -3.0882168e-002
 -1.3028824e-002 -4.2539388e-002
 -1.6044810e-002 -4.7729274e-002
 -2.0089394e-002 -4.4727188e-002
 -2.6318131e-002 -3.7223505e-002
 -3.3292757e-002 -3.1521462e-002
 -3.7707734e-002 -3.2310263e-002
 -3.7042641e-002 -3.9864081e-002
 -3.1915594e-002 -5.0421451e-002
 -2.6081747e-002 -5.9113333e-002
 -2.3811038e-002 -6.3062435e-002
 -2.6713502e-002 -6.2498105e-002
 -3.2478983e-002 -5.9401406e-002
 -3.6710277e-002 -5.5195184e-002
 -3.6385029e-002 -4.9612854e-002
 -3.2247479e-002 -4.1651686e-002
 -2.8197116e-002 -3.1800383e-002
 -2.8027784e-002 -2.3208921e-002
 -3.2103426e-002 -2.0435197e-002
 -3.6698933e-002 -2.6295698e-002
 -3.6540248e-002 -3.8987955e-002
 -2.8701256e-002 -5.1958628e-002
 -1.4772746e-002 -5.6969181e-002
  3.1421521e-004 -4.8858027e-002
  1.1828324e-002 -2.8855101e-002
  1.8335995e-002 -4.3297062e-003
  2.1838946e-002  1.4999216e-002
  2.5093746e-002  2.2195953e-002
  2.8387603e-002  1.6525843e-002
  2.8726406e-002  3.3600941e-003
  2.2251539e-002 -9.1216989e-003
  7.9598659e-003 -1.4398114e-002
 -1.0472379e-002 -1.0843671e-002
 -2.6675309e-002 -2.2870473e-003
 -3.5897394e-002  4.2147815e-003
 -3.8420870e-002  2.1547463e-003
 -3.8984323e-002 -1.0803363e-002
 -4.2538660e-002 -3.1117595e-002
 -4.9830956e-002 -5.0593266e-002
 -5.6545616e-002 -6.0323650e-002
 -5.7181223e-002 -5.5801452e-002
 -5.0728154e-002 -4.0260997e-002
 -4.3113038e-002 -2.3819940e-002
 -4.3551442e-002 -1.7851941e-002
 -5.6950252e-002 -2.7387191e-002
 -7.8201874e-002 -4.6352099e-002
 -9.3862977e-002 -5.9826611e-002
 -9.1398267e-002 -5.3357309e-002
 -6.9787638e-002 -2.4057425e-002
 -4.3089748e-002  1.4253102e-002
 -3.2337885e-002  3.7309380e-002
 -4.9729245e-002  2.6264291e-002
 -8.5689942e-002 -1.6125935e-002
 -1.0932616e-001 -6.0442947e-002
 -8.4756841e-002 -6.2907059e-002
  5.2218077e-003  9.7391053e-003
  1.4301240e-001  1.5659888e-001
  2.7938444e-001  3.3566117e-001
  3.5633966e-001  4.8017584e-001
  3.3735938e-001  5.3114978e-001
  2.2745761e-001  4.6803449e-001
  7.0985943e-002  3.1980801e-001
 -7.1484238e-002  1.4967035e-001
 -1.5359671e-001  2.2112999e-002
 -1.6342706e-001 -2.8556977e-002
 -1.2332707e-001 -1.0747275e-002
 -7.1720826e-002  3.6381650e-002
 -3.9773000e-002  6.9881952e-002
 -3.6950671e-002  6.7626670e-002
 -5.2200103e-002  3.6384439e-002
 -6.6893421e-002  1.0532408e-003
 -6.9060437e-002 -1.5306231e-002
 -5.9609593e-002 -6.5339660e-003
 -4.8279670e-002  1.5383027e-002
 -4.4360147e-002  3.1538506e-002
 -4.9783607e-002  3.0311332e-002
 -5.9059723e-002  1.4407157e-002
 -6.4669110e-002 -2.9789635e-003
 -6.2946727e-002 -8.7393300e-003
 -5.5820305e-002  1.1995272e-003
 -4.8007845e-002  2.0447035e-002
 -4.2684445e-002  3.8078990e-002
 -3.9552627e-002  4.6523848e-002
 -3.6374044e-002  4.5646749e-002
 -3.2105965e-002  4.0770226e-002
 -2.8416986e-002  3.7379607e-002
 -2.8161971e-002  3.7023651e-002
 -3.2225246e-002  3.7400983e-002
 -3.7842599e-002  3.5657508e-002
 -4.0197854e-002  3.1538606e-002
 -3.6156953e-002  2.7703033e-002
 -2.7129873e-002  2.7195765e-002
 -1.8300146e-002  3.0573541e-002
 -1.4573034e-002  3.5417760e-002
 -1.6503169e-002  3.8472125e-002
 -1.9426920e-002  3.8597818e-002
 -1.6933378e-002  3.7742796e-002
 -6.0030416e-003  3.9179808e-002
  1.0166995e-002  4.4467631e-002
  2.4047592e-002  5.1823618e-002
  2.9273501e-002  5.7490813e-002
  2.5540007e-002  5.8915879e-002
  1.9138630e-002  5.7141751e-002
  1.8605973e-002  5.6272321e-002
  2.8811952e-002  6.0458019e-002
  4.7643354e-002  7.0599108e-002
  6.8100999e-002  8.3740275e-002
  8.3762146e-002  9.5439693e-002
  9.3507929e-002  1.0332204e-001
  1.0176379e-001  1.0881088e-001
  1.1424535e-001  1.1557730e-001
  1.3277864e-001  1.2605244e-001
  1.5341806e-001  1.3881792e-001
  1.6948279e-001  1.4919090e-001
  1.7700264e-001  1.5262103e-001
  1.7813903e-001  1.4819331e-001
  1.7942542e-001  1.3932853e-001
  1.8598108e-001  1.3104409e-001
  1.9618628e-001  1.2591531e-001
  2.0128844e-001  1.2206125e-001
  1.9080143e-001  1.1476317e-001
  1.6016443e-001  1.0061902e-001
  1.1500151e-001  8.0791012e-002
  6.8623859e-002  6.0647351e-002
  3.4260466e-002  4.5947127e-002
  1.7342349e-002  3.8471701e-002
  1.3172460e-002  3.4593401e-002
  1.1369509e-002  2.8014160e-002
  3.6268246e-003  1.4648702e-002
 -1.0867866e-002 -4.0882476e-003
 -2.6124625e-002 -2.2241483e-002
 -3.5048735e-002 -3.3672033e-002
 -3.5549222e-002 -3.6550075e-002
 -3.2230022e-002 -3.4441767e-002
 -3.2500957e-002 -3.3313054e-002
 -4.0458349e-002 -3.6942587e-002
 -5.3389315e-002 -4.4348141e-002
 -6.3761754e-002 -5.1309355e-002
 -6.5111959e-002 -5.4446259e-002
 -5.7204961e-002 -5.4383198e-002
 -4.6301054e-002 -5.5148579e-002
 -4.0306665e-002 -6.0170416e-002
 -4.2636422e-002 -6.8361835e-002
 -4.9640373e-002 -7.3825165e-002
 -5.3590487e-002 -7.0007533e-002
 -4.9133432e-002 -5.5454164e-002
 -3.7967505e-002 -3.6460746e-002
 -2.8032030e-002 -2.4006582e-002
 -2.7531052e-002 -2.6547179e-002
 -3.8259218e-002 -4.3625667e-002
 -5.3410376e-002 -6.5245627e-002
 -6.1923960e-002 -7.7919239e-002
 -5.6311283e-002 -7.3509403e-002
 -3.8442808e-002 -5.4837801e-002
 -1.8870802e-002 -3.4015695e-002
 -9.9419450e-003 -2.4570001e-002
 -1.7531659e-002 -3.2709885e-002
 -3.7003606e-002 -5.3565678e-002
 -5.6350086e-002 -7.4837799e-002
 -6.4195625e-002 -8.5072201e-002
 -5.7147903e-002 -8.0778446e-002
 -4.1576229e-002 -6.7744074e-002
 -2.8895482e-002 -5.6355198e-002
 -2.7894176e-002 -5.4491631e-002
 -3.9402473e-002 -6.2966348e-002
 -5.6641253e-002 -7.6282619e-002
 -7.0503921e-002 -8.7400781e-002
 -7.5721253e-002 -9.2635435e-002
 -7.3681423e-002 -9.3321776e-002
 -7.0319028e-002 -9.3673397e-002
 -7.1188422e-002 -9.7003672e-002
 -7.7373676e-002 -1.0343116e-001
 -8.5060819e-002 -1.1048841e-001
 -8.8683597e-002 -1.1562344e-001
 -8.5088948e-002 -1.1826752e-001
 -7.5762377e-002 -1.1986540e-001
 -6.5667224e-002 -1.2208394e-001
 -5.9804692e-002 -1.2504808e-001
 -6.0077268e-002 -1.2723300e-001
 -6.4335442e-002 -1.2697609e-001
 -6.8197470e-002 -1.2430696e-001
 -6.8059156e-002 -1.2132094e-001
 -6.3332056e-002 -1.2074036e-001
 -5.6583320e-002 -1.2370447e-001
 -5.1720474e-002 -1.2870348e-001
 -5.1522191e-002 -1.3248660e-001
 -5.6068741e-002 -1.3231543e-001
 -6.2908088e-002 -1.2776896e-001
 -6.8748969e-002 -1.2084556e-001
 -7.1728687e-002 -1.1448763e-001
 -7.2644830e-002 -1.1070796e-001
 -7.4497442e-002 -1.0979935e-001
 -8.0478493e-002 -1.1097738e-001
 -9.1510940e-002 -1.1360030e-001
 -1.0497136e-001 -1.1775382e-001
 -1.1561376e-001 -1.2367302e-001
 -1.1837752e-001 -1.3068211e-001
 -1.1166498e-001 -1.3676417e-001
 -9.8893580e-002 -1.3952460e-001
 -8.7051508e-002 -1.3773670e-001
 -8.2879028e-002 -1.3237025e-001
 -8.8900157e-002 -1.2612743e-001
 -1.0196297e-001 -1.2182255e-001
 -1.1528792e-001 -1.2077380e-001
 -1.2287938e-001 -1.2245936e-001
 -1.2331583e-001 -1.2552672e-001
 -1.2031914e-001 -1.2907575e-001
 -1.1974794e-001 -1.3301869e-001
 -1.2515918e-001 -1.3720541e-001
 -1.3518815e-001 -1.4026446e-001
 -1.4456044e-001 -1.3941630e-001
 -1.4804677e-001 -1.3201781e-001
 -1.4425119e-001 -1.1769462e-001
 -1.3650070e-001 -9.9569996e-002
 -1.3008892e-001 -8.3204094e-002
 -1.2812078e-001 -7.3763180e-002
 -1.2924986e-001 -7.3309500e-002
 -1.2906521e-001 -7.9964436e-002
 -1.2399987e-001 -8.9475369e-002
 -1.1460059e-001 -9.7783873e-002
 -1.0547402e-001 -1.0276805e-001
 -1.0188894e-001 -1.0420896e-001
 -1.0554143e-001 -1.0232090e-001
 -1.1319518e-001 -9.6903559e-002
 -1.1915061e-001 -8.7922322e-002
 -1.1984071e-001 -7.6975038e-002
 -1.1674685e-001 -6.7739670e-002
 -1.1530898e-001 -6.4423625e-002
 -1.2038800e-001 -6.8649280e-002
 -1.3191691e-001 -7.7310867e-002
 -1.4434243e-001 -8.3590801e-002
 -1.5048938e-001 -8.1102443e-002
 -1.4705660e-001 -6.8550625e-002
 -1.3738276e-001 -5.1377673e-002
 -1.2918006e-001 -3.8622247e-002
 -1.2867937e-001 -3.6836561e-002
 -1.3567707e-001 -4.5276280e-002
 -1.4326105e-001 -5.5967635e-002
 -1.4263919e-001 -5.8865709e-002
 -1.2950343e-001 -4.8611622e-002
 -1.0722938e-001 -2.8019278e-002
 -8.4608191e-002 -5.8830780e-003
 -6.9821871e-002  9.2165604e-003
 -6.5382922e-002  1.4331035e-002
 -6.7511575e-002  1.3042094e-002
 -7.0114375e-002  1.1422494e-002
 -6.9840222e-002  1.2713657e-002
 -6.8189062e-002  1.5102481e-002
 -6.9286458e-002  1.4236894e-002
 -7.5696075e-002  8.0655317e-003
 -8.6052564e-002 -4.2139385e-004
 -9.6552663e-002 -5.2034870e-003
 -1.0478286e-001 -2.4040003e-003
 -1.1211531e-001  5.8600006e-003
 -1.2216845e-001  1.2765164e-002
 -1.3638922e-001  1.2572052e-002
 -1.5093048e-001  6.2538541e-003
 -1.5818346e-001  1.8250788e-003
 -1.5268658e-001  8.2329041e-003
 -1.3674473e-001  2.7317288e-002
 -1.2052469e-001  5.0587678e-002
 -1.1537814e-001  6.4407067e-002
 -1.2482222e-001  6.0417814e-002
 -1.4055764e-001  4.3104863e-002
 -1.4771751e-001  2.7672104e-002
 -1.3669697e-001  2.8471816e-002
 -1.1248111e-001  4.6495911e-002
 -9.3327961e-002  6.6301542e-002
 -9.7547905e-002  6.6943292e-002
 -1.2678974e-001  4.0533358e-002
 -1.5857564e-001  4.7787225e-003
 -1.5598870e-001 -1.9727130e-003
 -9.0636376e-002  5.6814789e-002
  3.5132939e-002  1.8897111e-001
  1.8243642e-001  3.6071653e-001
  2.9243575e-001  5.0856898e-001
  3.1698367e-001  5.7136698e-001
  2.4505003e-001  5.2377979e-001
  1.0869313e-001  3.9066546e-001
 -3.5082706e-002  2.3313628e-001
 -1.3508328e-001  1.1489907e-001
 -1.7059202e-001  6.9447627e-002
 -1.5580434e-001  8.7630611e-002
 -1.2413845e-001  1.3085474e-001
 -1.0449666e-001  1.5922144e-001
 -1.0562146e-001  1.5529806e-001
 -1.1697562e-001  1.2940860e-001
 -1.2247245e-001  1.0591041e-001
 -1.1509959e-001  1.0279447e-001
 -1.0161934e-001  1.1951187e-001
 -9.5233025e-002  1.4044879e-001
 -1.0336332e-001  1.4923560e-001
 -1.2070997e-001  1.4194995e-001
 -1.3300301e-001  1.2926113e-001
 -1.2795997e-001  1.2690626e-001
 -1.0489553e-001  1.4264252e-001
 -7.5452350e-002  1.6993506e-001
 -5.5281970e-002  1.9281810e-001
 -5.3101453e-002  1.9769529e-001
 -6.5243635e-002  1.8304554e-001
 -7.9241305e-002  1.6002247e-001
 -8.3182676e-002  1.4422347e-001
 -7.3642719e-002  1.4514820e-001
 -5.6736755e-002  1.6091846e-001
 -4.2269359e-002  1.8134288e-001
 -3.6193824e-002  1.9595219e-001
 -3.7099014e-002  2.0064829e-001
 -3.8774110e-002  1.9855979e-001
 -3.5996651e-002  1.9565614e-001
 -2.8690749e-002  1.9543439e-001
 -2.1294240e-002  1.9704577e-001
 -1.8467397e-002  1.9766057e-001
 -2.0969907e-002  1.9620585e-001
 -2.5195764e-002  1.9480459e-001
 -2.6258078e-002  1.9671850e-001
 -2.1873266e-002  2.0291894e-001
 -1.3600709e-002  2.1068759e-001
 -4.6495620e-003  2.1583086e-001
  3.5248921e-003  2.1673660e-001
  1.2654234e-002  2.1663814e-001
  2.5793209e-002  2.2178010e-001
  4.3805318e-002  2.3655157e-001
  6.3427454e-002  2.5934938e-001
  7.9019403e-002  2.8276017e-001
  8.6818740e-002  2.9828926e-001
  8.8363794e-002  3.0226962e-001
  9.0049142e-002  2.9850471e-001
  9.8876189e-002  2.9561268e-001
  1.1746978e-001  3.0091047e-001
  1.4216671e-001  3.1542691e-001
  1.6566180e-001  3.3359879e-001
  1.8208888e-001  3.4760215e-001
  1.9058992e-001  3.5296870e-001
  1.9462760e-001  3.5107034e-001
  1.9783270e-001  3.4699550e-001
  1.9988882e-001  3.4469267e-001
  1.9619442e-001  3.4347960e-001
  1.8165301e-001  3.3860251e-001
  1.5569769e-001  3.2534645e-001
  1.2435053e-001  3.0329539e-001
  9.7137126e-002  2.7728756e-001
  8.0994420e-002  2.5443976e-001
  7.5485051e-002  2.3942384e-001
  7.3081120e-002  2.3166229e-001
  6.4734140e-002  2.2642198e-001
  4.6658515e-002  2.1879383e-001
  2.3487602e-002  2.0729710e-001
  5.4645011e-003  1.9463734e-001
  1.4964832e-003  1.8512758e-001
  1.3057147e-002  1.8121552e-001
  3.2984263e-002  1.8169517e-001
  5.0091271e-002  1.8302044e-001
  5.5967101e-002  1.8217569e-001
  4.9534228e-002  1.7887578e-001
  3.6535815e-002  1.7534031e-001
  2.4900538e-002  1.7410742e-001
  1.9678649e-002  1.7585285e-001
  2.0886786e-002  1.7891589e-001
  2.5051912e-002  1.8071350e-001
  2.8571776e-002  1.7964135e-001
  3.0114383e-002  1.7589570e-001
  3.0413217e-002  1.7075952e-001
  3.0412858e-002  1.6524166e-001
  2.9802964e-002  1.5949824e-001
  2.7350546e-002  1.5356571e-001
  2.2589779e-002  1.4850153e-001
  1.7153315e-002  1.4644850e-001
  1.4188392e-002  1.4911754e-001
  1.6241854e-002  1.5582805e-001
  2.3287363e-002  1.6295222e-001
  3.2656979e-002  1.6581712e-001
  4.1107309e-002  1.6204050e-001
  4.7223522e-002  1.5375647e-001
  5.2241612e-002  1.4675368e-001
  5.8276845e-002  1.4656810e-001
  6.5472519e-002  1.5421141e-001
  7.0598578e-002  1.6470920e-001
  6.8640688e-002  1.6988180e-001
  5.6700536e-002  1.6369448e-001
  3.7319059e-002  1.4649472e-001
  1.8322608e-002  1.2508841e-001
  8.8141747e-003  1.0855407e-001
  1.3540121e-002  1.0274625e-001
  2.9555077e-002  1.0722573e-001
  4.7623451e-002  1.1663922e-001
  5.7780300e-002  1.2507181e-001
  5.5340239e-002  1.2999251e-001
  4.3656992e-002  1.3294712e-001
  3.1619633e-002  1.3674848e-001
  2.7722270e-002  1.4183165e-001
  3.4677281e-002  1.4497300e-001
  4.8001462e-002  1.4149675e-001
  5.9255097e-002  1.2926113e-001
  6.1661515e-002  1.1122645e-001
  5.4293713e-002  9.4283215e-002
  4.2377817e-002  8.5149258e-002
  3.3713123e-002  8.6091737e-002
  3.3929457e-002  9.3716054e-002
  4.3351192e-002  1.0145821e-001
  5.7336898e-002  1.0394238e-001
  6.9240017e-002  9.9895814e-002
  7.4190787e-002  9.1897033e-002
  7.1373208e-002  8.3539770e-002
  6.3952852e-002  7.6642848e-002
  5.6995367e-002  7.0550420e-002
  5.4802037e-002  6.3840844e-002
  5.8783486e-002  5.6443135e-002
  6.6965833e-002  5.0251099e-002
  7.5025936e-002  4.7468912e-002
  7.8432617e-002  4.8306667e-002
  7.4859711e-002  5.0262707e-002
  6.5599835e-002  4.9851439e-002
  5.5187727e-002  4.5523109e-002
  4.9197707e-002  3.9343447e-002
  5.1036509e-002  3.5688549e-002
  5.9741497e-002  3.7818750e-002
  7.0208643e-002  4.4901906e-002
  7.6021857e-002  5.2023935e-002
  7.3423144e-002  5.3479798e-002
  6.3822740e-002  4.6880641e-002
  5.3089506e-002  3.4994462e-002
  4.7740908e-002  2.3664955e-002
  5.0578612e-002  1.7450799e-002
  5.8660294e-002  1.6303226e-002
  6.5287249e-002  1.5922858e-002
  6.4722967e-002  1.1541304e-002
  5.6491499e-002  2.1433020e-003
  4.6020062e-002 -8.3349926e-003
  4.1026935e-002 -1.3918085e-002
  4.5962427e-002 -1.1447350e-002
  5.8388615e-002 -3.5859236e-003
  7.0184957e-002  2.5965133e-003
  7.2800695e-002  5.2896630e-004
  6.3256831e-002 -1.1165479e-002
  4.6592688e-002 -2.7700294e-002
  3.3035117e-002 -4.1571699e-002
  3.1414427e-002 -4.7885336e-002
  4.3386458e-002 -4.7442031e-002
  6.2182335e-002 -4.5427583e-002
  7.6830611e-002 -4.6883518e-002
  7.9028251e-002 -5.2652886e-002
  6.8191634e-002 -5.8948625e-002
  5.1448920e-002 -6.0790881e-002
  3.8856886e-002 -5.6364089e-002
  3.7105702e-002 -4.8811060e-002
  4.5756676e-002 -4.3976641e-002
  5.8134223e-002 -4.6082798e-002
  6.5985928e-002 -5.4704582e-002
  6.4517054e-002 -6.5561979e-002
  5.4755111e-002 -7.4292074e-002
  4.2181840e-002 -7.9803190e-002
  3.2874718e-002 -8.4522837e-002
  3.0065476e-002 -9.1237898e-002
  3.2922379e-002 -9.9499673e-002
  3.7966409e-002 -1.0497641e-001
  4.1826790e-002 -1.0263247e-001
  4.3363201e-002 -9.1370736e-002
  4.3961361e-002 -7.6204831e-002
  4.6242901e-002 -6.5579335e-002
  5.2085117e-002 -6.5532710e-002
  6.1173908e-002 -7.5134979e-002
  7.0848504e-002 -8.6978898e-002
  7.7323707e-002 -9.2717003e-002
  7.7556622e-002 -8.9632180e-002
  7.1039034e-002 -8.2969141e-002
  6.0408383e-002 -8.2048731e-002
  5.0453811e-002 -9.2784361e-002
  4.5726813e-002 -1.1243755e-001
  4.8000315e-002 -1.3085233e-001
  5.5026095e-002 -1.3754512e-001
  6.1720156e-002 -1.2940165e-001
  6.3196384e-002 -1.1320180e-001
  5.8113383e-002 -1.0068009e-001
  4.9860388e-002 -9.9972583e-002
  4.4641036e-002 -1.0974682e-001
  4.7247074e-002 -1.2067075e-001
  5.7546885e-002 -1.2290616e-001
  7.0049265e-002 -1.1401918e-001
  7.7223145e-002 -1.0107152e-001
  7.4585885e-002 -9.5180488e-002
  6.3986893e-002 -1.0280523e-001
  5.2675490e-002 -1.2045351e-001
  4.8566909e-002 -1.3694079e-001
  5.5123458e-002 -1.4142009e-001
  6.9275076e-002 -1.3117282e-001
  8.3915969e-002 -1.1323638e-001
  9.3032691e-002 -9.8942260e-002
  9.5605631e-002 -9.5779478e-002
  9.5421542e-002 -1.0283791e-001
  9.7097082e-002 -1.1310361e-001
  1.0157309e-001 -1.2017323e-001
  1.0489824e-001 -1.2367058e-001
  1.0125669e-001 -1.2900093e-001
  8.8063246e-002 -1.4182380e-001
  6.8892886e-002 -1.6223545e-001
  5.1705549e-002 -1.8371057e-001
  4.3454580e-002 -1.9786300e-001
  4.5167053e-002 -2.0105745e-001
  5.1338587e-002 -1.9723037e-001
  5.4115425e-002 -1.9444759e-001
  4.9095952e-002 -1.9798970e-001
  3.8158768e-002 -2.0590713e-001
  2.7133964e-002 -2.1110800e-001
  2.0557901e-002 -2.0825875e-001
  1.7946759e-002 -1.9954811e-001
  1.4983463e-002 -1.9384931e-001
  8.5586920e-003 -1.9922248e-001
  1.0432940e-003 -2.1483223e-001
 -7.9507550e-004 -2.2984356e-001
  7.7790951e-003 -2.3150201e-001
  2.2814600e-002 -2.1674523e-001
  3.1505505e-002 -1.9744657e-001
  2.0952758e-002 -1.9302356e-001
 -8.9692669e-003 -2.1373016e-001
 -3.8493523e-002 -2.4668938e-001
 -3.4486200e-002 -2.5700626e-001
  3.0494873e-002 -2.0686944e-001
  1.5718534e-001 -8.2291016e-002
  3.1102394e-001  9.0280045e-002
  4.3409118e-001  2.5077840e-001
  4.7317908e-001  3.3445582e-001
  4.0834682e-001  3.0666980e-001
  2.6475150e-001  1.8225104e-001
  1.0006548e-001  1.7229192e-002
 -2.5390495e-002 -1.2212723e-001
 -7.8312960e-002 -1.9386511e-001
 -6.4766113e-002 -1.9786014e-001
 -1.9793742e-002 -1.6754161e-001
  1.7378589e-002 -1.4360653e-001
  2.5893597e-002 -1.4829680e-001
  1.0447519e-002 -1.7611454e-001
 -8.7721049e-003 -2.0434974e-001
 -1.3883688e-002 -2.1314837e-001
 -1.8188871e-003 -2.0003396e-001
  1.6102911e-002 -1.7946232e-001
  2.5046732e-002 -1.6994785e-001
  1.8513038e-002 -1.7971908e-001
  2.2797976e-003 -2.0158666e-001
 -1.1523194e-002 -2.1980433e-001
 -1.4397686e-002 -2.2243334e-001
 -7.5865031e-003 -2.0955386e-001
  7.8543024e-005 -1.9175866e-001
  6.3322084e-005 -1.8117840e-001
 -8.9541712e-003 -1.8273564e-001
 -2.0429275e-002 -1.9200679e-001
 -2.5618560e-002 -2.0041788e-001
 -2.0662143e-002 -2.0269232e-001
 -9.2556110e-003 -2.0031922e-001
  7.8550785e-004 -1.9872977e-001
  4.0037355e-003 -2.0140046e-001
  1.4403023e-003 -2.0617134e-001
 -7.7048081e-004 -2.0701119e-001
  3.0965042e-003 -1.9954456e-001
  1.3369402e-002 -1.8543315e-001
  2.4624768e-002 -1.7174104e-001
  3.0028077e-002 -1.6582902e-001
  2.6800597e-002 -1.6977964e-001
  1.8366477e-002 -1.7904919e-001
  1.1624760e-002 -1.8624613e-001
  1.1687458e-002 -1.8693177e-001
  1.8458680e-002 -1.8256892e-001
  2.7684882e-002 -1.7835846e-001
  3.5294024e-002 -1.7791697e-001
  4.1278341e-002 -1.7939444e-001
  4.9741897e-002 -1.7652313e-001
  6.5040828e-002 -1.6385995e-001
  8.7343405e-002 -1.4191363e-001
  1.1137691e-001 -1.1783800e-001
  1.2982298e-001 -1.0069522e-001
  1.3873751e-001 -9.4857557e-002
  1.4075972e-001 -9.6682611e-002
  1.4346980e-001 -9.7086387e-002
  1.5385605e-001 -8.8343037e-002
  1.7304692e-001 -6.9909302e-002
  1.9528854e-001 -4.8907953e-002
  2.1192031e-001 -3.4976908e-002
  2.1740877e-001 -3.3412236e-002
  2.1287149e-001 -4.1840250e-002
  2.0469979e-001 -5.2579919e-002
  1.9934294e-001 -5.8865393e-002
  1.9847779e-001 -5.9908493e-002
  1.9790391e-001 -6.1065641e-002
  1.9106754e-001 -6.9072579e-002
  1.7416828e-001 -8.6435233e-002
  1.4907603e-001 -1.0917985e-001
  1.2205647e-001 -1.2967713e-001
  9.9486710e-002 -1.4211564e-001
  8.3775079e-002 -1.4643309e-001
  7.2496178e-002 -1.4778761e-001
  6.0961351e-002 -1.5227188e-001
  4.5969071e-002 -1.6236506e-001
  2.8010667e-002 -1.7549766e-001
  1.0538430e-002 -1.8653681e-001
 -2.7613387e-003 -1.9190556e-001
 -1.0463551e-002 -1.9197671e-001
 -1.3900402e-002 -1.9015839e-001
 -1.5710466e-002 -1.8968635e-001
 -1.7859901e-002 -1.9099091e-001
 -2.0682616e-002 -1.9181159e-001
 -2.3296082e-002 -1.8963311e-001
 -2.4655944e-002 -1.8423730e-001
 -2.4334409e-002 -1.7816482e-001
 -2.2537636e-002 -1.7459200e-001
 -1.9777016e-002 -1.7462797e-001
 -1.6723171e-002 -1.7627250e-001
 -1.4215988e-002 -1.7600747e-001
 -1.3174272e-002 -1.7177803e-001
 -1.3915392e-002 -1.6480589e-001
 -1.5315788e-002 -1.5869365e-001
 -1.4743586e-002 -1.5645753e-001
 -9.4478535e-003 -1.5792976e-001
  1.1350257e-003 -1.5964404e-001
  1.3897165e-002 -1.5743596e-001
  2.2927949e-002 -1.4979021e-001
  2.2750301e-002 -1.3941491e-001
  1.2039724e-002 -1.3169992e-001
 -4.8600005e-003 -1.3120212e-001
 -2.0100273e-002 -1.3853892e-001
 -2.6979576e-002 -1.4987556e-001
 -2.4043768e-002 -1.5926468e-001
 -1.5671158e-002 -1.6211029e-001
 -8.6638252e-003 -1.5755606e-001
 -7.2521030e-003 -1.4840402e-001
 -1.0362074e-002 -1.3922679e-001
 -1.3026354e-002 -1.3398453e-001
 -1.0818980e-002 -1.3451910e-001
 -3.8069349e-003 -1.4033688e-001
  3.3167409e-003 -1.4921043e-001
  4.8639658e-003 -1.5818827e-001
 -1.0985506e-003 -1.6465379e-001
 -1.0800687e-002 -1.6735998e-001
 -1.7465662e-002 -1.6721057e-001
 -1.6435761e-002 -1.6699610e-001
 -8.9213919e-003 -1.6987727e-001
 -1.1526730e-003 -1.7701888e-001
  5.9650439e-004 -1.8590719e-001
 -4.7695203e-003 -1.9098879e-001
 -1.1935439e-002 -1.8687810e-001
 -1.3176831e-002 -1.7237362e-001
 -4.5742257e-003 -1.5239985e-001
  1.0321389e-002 -1.3607663e-001
  2.2472491e-002 -1.3145568e-001
  2.3839977e-002 -1.4025854e-001
  1.3583635e-002 -1.5624771e-001
 -1.0059776e-003 -1.6884416e-001
 -9.6020675e-003 -1.6973194e-001
 -6.6262846e-003 -1.5828470e-001
  4.4713659e-003 -1.4175862e-001
  1.3460368e-002 -1.3031473e-001
  1.0918382e-002 -1.3012260e-001
 -4.4585488e-003 -1.3938500e-001
 -2.4373543e-002 -1.5000440e-001
 -3.6393184e-002 -1.5364364e-001
 -3.2684029e-002 -1.4767224e-001
 -1.5576867e-002 -1.3667738e-001
  3.9203413e-003 -1.2873690e-001
  1.3718054e-002 -1.2932869e-001
  8.7858191e-003 -1.3744963e-001
 -5.7782591e-003 -1.4668159e-001
 -1.8769392e-002 -1.5014262e-001
 -2.0889619e-002 -1.4547688e-001
 -1.0959227e-002 -1.3620591e-001
  3.8842365e-003 -1.2863431e-001
  1.3804410e-002 -1.2694633e-001
  1.3366868e-002 -1.3031393e-001
  4.9704609e-003 -1.3406953e-001
 -3.4912390e-003 -1.3374635e-001
 -4.7610779e-003 -1.2872602e-001
  2.5077670e-003 -1.2259668e-001
  1.2953179e-002 -1.2017810e-001
  1.8589204e-002 -1.2354489e-001
  1.4487660e-002 -1.3029883e-001
  2.1974633e-003 -1.3523959e-001
 -1.1396572e-002 -1.3413021e-001
 -1.8709943e-002 -1.2664538e-001
 -1.6283971e-002 -1.1639854e-001
 -6.7589990e-003 -1.0830775e-001
  3.0352478e-003 -1.0536167e-001
  6.3232952e-003 -1.0710390e-001
  3.8186324e-004 -1.1050047e-001
 -1.2146735e-002 -1.1220229e-001
 -2.4998058e-002 -1.1041835e-001
 -3.1886862e-002 -1.0539140e-001
 -2.9869883e-002 -9.8737851e-002
 -2.0783257e-002 -9.2634047e-002
 -1.0050447e-002 -8.9328887e-002
 -3.5970825e-003 -9.0749261e-002
 -4.4017274e-003 -9.7548642e-002
 -1.0731856e-002 -1.0801467e-001
 -1.6968206e-002 -1.1767884e-001
 -1.6913724e-002 -1.2083258e-001
 -7.6478507e-003 -1.1364168e-001
  8.3609839e-003 -9.6992192e-002
  2.4576021e-002 -7.6650779e-002
  3.4320839e-002 -6.0115383e-002
  3.5157920e-002 -5.1785848e-002
  3.0503091e-002 -5.0076730e-002
  2.7236070e-002 -4.8862947e-002
  3.0735673e-002 -4.2588944e-002
  4.0649067e-002 -3.1359332e-002
  5.0651705e-002 -2.1763141e-002
  5.2463186e-002 -2.2379096e-002
  4.1501170e-002 -3.6886215e-002
  2.0106362e-002 -6.0127318e-002
 -4.0174453e-003 -8.0618192e-002
 -2.3027705e-002 -8.8192344e-002
 -3.3837654e-002 -8.1168452e-002
 -3.9179415e-002 -6.7587769e-002
 -4.4184429e-002 -5.9113579e-002
 -5.1457244e-002 -6.2081944e-002
 -5.8836027e-002 -7.2682698e-002
 -6.1821626e-002 -8.0358674e-002
 -5.8446609e-002 -7.6974948e-002
 -5.2195321e-002 -6.4444215e-002
 -4.9865907e-002 -5.4141711e-002
 -5.5536023e-002 -5.7759039e-002
 -6.5770222e-002 -7.6448562e-002
 -7.0910985e-002 -9.7463061e-002
 -6.2813776e-002 -1.0239709e-001
 -4.3533046e-002 -8.1981946e-002
 -2.7246741e-002 -4.6109674e-002
 -3.1738412e-002 -1.9693033e-002
 -6.3526453e-002 -2.4946636e-002
 -1.0715227e-001 -6.1516233e-002
 -1.2829097e-001 -9.9561104e-002
 -9.1917213e-002 -9.3688691e-002
  1.3927864e-002 -1.1414891e-002
  1.6416285e-001  1.4144195e-001
  3.0345577e-001  3.1619282e-001
  3.7236770e-001  4.4298411e-001
  3.3861575e-001  4.6733059e-001
  2.1513516e-001  3.8002424e-001
  5.3553855e-002  2.2199095e-001
 -8.3115427e-002  6.1439843e-002
 -1.5246820e-001 -4.2677100e-002
 -1.5079788e-001 -6.8903493e-002
 -1.0795548e-001 -3.7574254e-002
 -6.4574105e-002  8.4941979e-003
 -4.7223824e-002  3.2561406e-002
 -5.6760355e-002  2.3235682e-002
 -7.4881745e-002 -5.5741360e-003
 -8.1759937e-002 -3.0492518e-002
 -7.1179529e-002 -3.7038569e-002
 -5.3212974e-002 -2.7763270e-002
 -4.4365792e-002 -1.6536574e-002
 -5.3925829e-002 -1.5616358e-002
 -7.6929439e-002 -2.6196019e-002
 -9.8291684e-002 -3.8995765e-002
 -1.0417069e-001 -4.3085720e-002
 -9.1647913e-002 -3.4971027e-002
 -6.9881631e-002 -2.0770669e-002
 -5.2672826e-002 -1.0441534e-002
 -4.8527354e-002 -9.3762081e-003
 -5.5684216e-002 -1.4452511e-002
 -6.5051308e-002 -1.7461596e-002
 -6.7917115e-002 -1.2752133e-002
 -6.2271783e-002 -2.5885269e-003
 -5.2937779e-002  4.4389867e-003
 -4.6383033e-002  5.3589562e-004
 -4.4862007e-002 -1.4306795e-002
 -4.4775604e-002 -3.1221954e-002
 -4.0442477e-002 -3.8510469e-002
 -2.9837183e-002 -3.0288764e-002
 -1.7405610e-002 -1.1216378e-002
 -1.1200576e-002  6.5053571e-003
 -1.6579015e-002  1.1644674e-002
 -3.1231643e-002  1.8840432e-003
 -4.5784169e-002 -1.4694167e-002
 -4.9871174e-002 -2.5562219e-002
 -3.9376308e-002 -2.2696203e-002
 -1.9673787e-002 -7.9965546e-003
 -2.1216990e-003  8.6705324e-003
  3.6826448e-003  1.7116587e-002
 -3.3268903e-003  1.4554374e-002
 -1.4696835e-002  7.6529031e-003
 -1.8032385e-002  7.5481718e-003
 -5.1205094e-003  2.1605939e-002
  2.2667807e-002  4.7757937e-002
  5.5366850e-002  7.5532361e-002
  8.0966950e-002  9.3002904e-002
  9.3000802e-002  9.4749504e-002
  9.4188675e-002  8.5379025e-002
  9.3934370e-002  7.6295663e-002
  1.0165917e-001  7.8139925e-002
  1.2037159e-001  9.3867288e-002
  1.4462893e-001  1.1709654e-001
  1.6398733e-001  1.3646195e-001
  1.6943231e-001  1.4287451e-001
  1.5861400e-001  1.3483544e-001
  1.3674036e-001  1.1861779e-001
  1.1294785e-001  1.0360269e-001
  9.4517491e-002  9.6013980e-002
  8.2694199e-002  9.5196975e-002
  7.2565590e-002  9.4579690e-002
  5.6837322e-002  8.6384508e-002
  3.1088450e-002  6.6912680e-002
 -2.7425586e-003  3.9103241e-002
 -3.6779161e-002  1.0942271e-002
 -6.1279978e-002 -9.0780510e-003
 -6.9913164e-002 -1.6499784e-002
 -6.3335962e-002 -1.2927711e-002
 -4.8908233e-002 -4.5382765e-003
 -3.6863146e-002  1.6343543e-003
 -3.4924390e-002  1.4078745e-003
 -4.4467444e-002 -4.9976181e-003
 -6.0289548e-002 -1.4058885e-002
 -7.3903793e-002 -2.1607235e-002
 -7.8518314e-002 -2.5297324e-002
 -7.2816553e-002 -2.5459948e-002
 -6.1370252e-002 -2.4182974e-002
 -5.1694434e-002 -2.3476638e-002
 -4.9746916e-002 -2.3949703e-002
 -5.6524661e-002 -2.4681871e-002
 -6.7759524e-002 -2.4175555e-002
 -7.6573658e-002 -2.1456352e-002
 -7.7580811e-002 -1.6620774e-002
 -6.9836225e-002 -1.0559689e-002
 -5.7063524e-002 -4.2909279e-003
 -4.5171134e-002  1.4555072e-003
 -3.8810339e-002  6.1038613e-003
 -3.8981562e-002  8.8741069e-003
 -4.3059292e-002  8.6519647e-003
 -4.6843997e-002  4.6309298e-003
 -4.7304992e-002 -2.7990065e-003
 -4.4084981e-002 -1.1503065e-002
 -3.9143457e-002 -1.7985627e-002
 -3.5024810e-002 -1.8774378e-002
 -3.3174859e-002 -1.2310657e-002
 -3.3433393e-002 -1.1150750e-004
 -3.4837205e-002  1.3530023e-002
 -3.6931524e-002  2.3243843e-002
 -4.0324083e-002  2.5015003e-002
 -4.5923811e-002  1.8045547e-002
 -5.3458590e-002  5.1065352e-003
 -6.0544338e-002 -8.7350030e-003
 -6.3412183e-002 -1.8534091e-002
 -5.9080660e-002 -2.1691479e-002
 -4.7700536e-002 -1.9014735e-002
 -3.3406484e-002 -1.4069385e-002
 -2.2637301e-002 -1.1171779e-002
 -2.0677793e-002 -1.3019347e-002
 -2.8487263e-002 -1.9190154e-002
 -4.1815225e-002 -2.6322021e-002
 -5.3478036e-002 -2.9952919e-002
 -5.7565671e-002 -2.7081058e-002
 -5.3010369e-002 -1.8010647e-002
 -4.4221534e-002 -6.2983796e-003
 -3.8351236e-002  3.1902115e-003
 -4.0721155e-002  7.1343366e-003
 -5.1458567e-002  5.6919375e-003
 -6.5410806e-002  2.2711503e-003
 -7.5377880e-002  1.1691794e-003
 -7.6589672e-002  4.5673463e-003
 -6.9578172e-002  1.0785144e-002
 -5.9635368e-002  1.5095185e-002
 -5.3265663e-002  1.2650698e-002
 -5.4045343e-002  1.7159329e-003
 -6.0458297e-002 -1.4863467e-002
 -6.7160684e-002 -3.0966013e-002
 -6.8503013e-002 -4.0429414e-002
 -6.2165423e-002 -4.0262081e-002
 -5.0528122e-002 -3.1871027e-002
 -3.9163770e-002 -1.9757268e-002
 -3.3473917e-002 -8.7288368e-003
 -3.5623983e-002 -1.4750852e-003
 -4.3621535e-002  2.0355332e-003
 -5.2674698e-002  3.3758626e-003
 -5.7970126e-002  3.8704100e-003
 -5.7055877e-002  3.5810378e-003
 -5.0682127e-002  1.7597698e-003
 -4.2085536e-002 -1.8561421e-003
 -3.5308931e-002 -6.1995547e-003
 -3.3467431e-002 -9.2000003e-003
 -3.7752698e-002 -9.0959695e-003
 -4.7206433e-002 -5.6660487e-003
 -5.9190507e-002 -4.6795961e-004
 -7.0227675e-002  4.2538119e-003
 -7.7134578e-002  7.0679073e-003
 -7.8046040e-002  8.3119997e-003
 -7.3151880e-002  9.6656977e-003
 -6.4692842e-002  1.2718005e-002
 -5.6075207e-002  1.7589671e-002
 -5.0406243e-002  2.2672724e-002
 -4.9217420e-002  2.5612623e-002
 -5.1872005e-002  2.4961862e-002
 -5.6195240e-002  2.1151748e-002
 -5.9764171e-002  1.6242631e-002
 -6.1248702e-002  1.2513175e-002
 -6.0821025e-002  1.1068138e-002
 -5.9640805e-002  1.1351625e-002
 -5.8617643e-002  1.2012453e-002
 -5.7564135e-002  1.2281496e-002
 -5.5240918e-002  1.2781775e-002
 -5.0432291e-002  1.4922217e-002
 -4.3267724e-002  1.9265147e-002
 -3.5797539e-002  2.4120127e-002
 -3.1098440e-002  2.5768704e-002
 -3.1384761e-002  2.0559144e-002
 -3.6141513e-002  7.7971064e-003
 -4.1821381e-002 -8.6687096e-003
 -4.3569045e-002 -2.1680458e-002
 -3.8258436e-002 -2.4563087e-002
 -2.6935280e-002 -1.5370925e-002
 -1.4998169e-002  1.1876543e-003
 -9.3616325e-003  1.5960900e-002
 -1.4311809e-002  2.0607945e-002
 -2.8489528e-002  1.2814610e-002
 -4.5151136e-002 -1.9965307e-003
 -5.5849958e-002 -1.3841554e-002
 -5.5382968e-002 -1.4480808e-002
 -4.4718969e-002 -2.6463112e-003
 -2.9910716e-002  1.5322962e-002
 -1.7652650e-002  3.0036668e-002
 -1.0595025e-002  3.5742039e-002
 -5.8375490e-003  3.4312484e-002
  2.0825078e-003  3.3612154e-002
  1.5880315e-002  4.1167958e-002
  3.1943522e-002  5.7756198e-002
  4.1573976e-002  7.5770642e-002
  3.6746841e-002  8.3952682e-002
  1.6274112e-002  7.5339606e-002
 -1.2205945e-002  5.2696522e-002
 -3.6570232e-002  2.7216444e-002
 -4.8107055e-002  1.1168066e-002
 -4.7451326e-002  9.6654063e-003
 -4.3936403e-002  1.7634699e-002
 -4.8512013e-002  2.4324630e-002
 -6.5139912e-002  2.2099091e-002
 -8.7331651e-002  1.2562946e-002
 -1.0276113e-001  5.2172762e-003
 -1.0280479e-001  9.4189676e-003
 -8.9837057e-002  2.5838056e-002
 -7.6080176e-002  4.4663009e-002
 -7.4309371e-002  5.2562469e-002
 -8.7148135e-002  4.3625259e-002
 -1.0356926e-001  2.5503808e-002
 -1.0658224e-001  1.4882768e-002
 -8.7256554e-002  2.4564793e-002
 -5.4493262e-002  5.1584074e-002
 -3.1711481e-002  7.6450922e-002
 -4.0618869e-002  7.6196307e-002
 -8.2067698e-002  4.3649707e-002
 -1.2855644e-001 -1.1337568e-003
 -1.3598033e-001 -1.7453211e-002
 -6.9857118e-002  3.2856112e-002
  6.9623985e-002  1.5906025e-001
  2.4061368e-001  3.2934532e-001
  3.7719764e-001  4.8260652e-001
  4.2258713e-001  5.5874127e-001
  3.5874348e-001  5.3018885e-001
  2.1504550e-001  4.1581320e-001
  5.1291361e-002  2.6913091e-001
 -7.4108336e-002  1.4846694e-001
 -1.3165333e-001  8.7346822e-002
 -1.2890615e-001  8.2180977e-002
 -9.7413572e-002  1.0240063e-001
 -6.9330535e-002  1.1411128e-001
 -5.9539965e-002  1.0111053e-001
 -6.2995350e-002  7.0741740e-002
 -6.5542374e-002  4.3580240e-002
 -5.8033082e-002  3.6277272e-002
 -4.3179056e-002  5.0064450e-002
 -3.1507674e-002  7.1831055e-002
 -3.1535756e-002  8.5018042e-002
 -4.2631675e-002  8.1475390e-002
 -5.5983121e-002  6.5864309e-002
 -6.1972951e-002  5.0683278e-002
 -5.7702087e-002  4.6589662e-002
 -4.8547046e-002  5.5456441e-002
 -4.3088985e-002  7.0461358e-002
 -4.5907235e-002  8.2081993e-002
 -5.4082045e-002  8.4932948e-002
 -5.9849180e-002  8.0695512e-002
 -5.6961449e-002  7.5789602e-002
 -4.5491559e-002  7.6358740e-002
 -3.1618099e-002  8.4279867e-002
 -2.2903248e-002  9.6534565e-002
 -2.3240921e-002  1.0749897e-001
 -3.1162645e-002  1.1215776e-001
 -4.2176223e-002  1.0831017e-001
 -5.2532463e-002  9.7163612e-002
 -6.0927239e-002  8.2761947e-002
 -6.7114716e-002  7.0744935e-002
 -6.9508478e-002  6.6405398e-002
 -6.4712062e-002  7.2420861e-002
 -5.0168085e-002  8.6886018e-002
 -2.7859293e-002  1.0328043e-001
 -5.2409242e-003  1.1321623e-001
  8.2466252e-003  1.1107546e-001
  7.4352680e-003  9.7901200e-002
 -4.2259024e-003  8.1722638e-002
 -1.5997098e-002  7.3394555e-002
 -1.6613377e-002  8.0199869e-002
 -1.7907634e-003  1.0139842e-001
  2.2851693e-002  1.2868440e-001
  4.6031771e-002  1.5156996e-001
  5.9002246e-002  1.6389506e-001
  6.1946729e-002  1.6716858e-001
  6.3530820e-002  1.6847410e-001
  7.4047949e-002  1.7474753e-001
  9.7137640e-002  1.8773594e-001
  1.2646650e-001  2.0325999e-001
  1.4976304e-001  2.1495873e-001
  1.5738279e-001  2.1941062e-001
  1.4897215e-001  2.1844486e-001
  1.3345605e-001  2.1711265e-001
  1.2237177e-001  2.1903882e-001
  1.2181479e-001  2.2322137e-001
  1.2859342e-001  2.2472718e-001
  1.3331199e-001  2.1885322e-001
  1.2762587e-001  2.0527207e-001
  1.1005197e-001  1.8870265e-001
  8.6264190e-002  1.7544260e-001
  6.4249095e-002  1.6860835e-001
  4.8325277e-002  1.6558726e-001
  3.6864998e-002  1.6004144e-001
  2.5027913e-002  1.4680456e-001
  9.8526548e-003  1.2594769e-001
 -6.7324693e-003  1.0297777e-001
 -1.9507718e-002  8.4992451e-002
 -2.4696473e-002  7.5931707e-002
 -2.3775668e-002  7.4400744e-002
 -2.2930414e-002  7.5598351e-002
 -2.8442254e-002  7.5491513e-002
 -4.1447680e-002  7.3826327e-002
 -5.6475547e-002  7.3622480e-002
 -6.5037897e-002  7.7818713e-002
 -6.1792789e-002  8.6047578e-002
 -4.8644537e-002  9.4291602e-002
 -3.3669275e-002  9.7800023e-002
 -2.5680336e-002  9.4848115e-002
 -2.8340535e-002  8.8281393e-002
 -3.8258762e-002  8.3500406e-002
 -4.7884173e-002  8.4487370e-002
 -5.1044124e-002  9.0980138e-002
 -4.6696795e-002  9.9048056e-002
 -3.8561630e-002  1.0442962e-001
 -3.1320855e-002  1.0586218e-001
 -2.6893714e-002  1.0565436e-001
 -2.3683395e-002  1.0714833e-001
 -1.9138745e-002  1.1130168e-001
 -1.3060801e-002  1.1541413e-001
 -8.5982829e-003  1.1519861e-001
 -9.7961083e-003  1.0865391e-001
 -1.7765243e-002  9.8382985e-002
 -2.8694778e-002  9.0345065e-002
 -3.5832218e-002  8.9561222e-002
 -3.4126073e-002  9.6118668e-002
 -2.4232077e-002  1.0458531e-001
 -1.2525207e-002  1.0764536e-001
 -6.9477130e-003  1.0138857e-001
 -1.1582784e-002  8.8317371e-002
 -2.3715554e-002  7.5840882e-002
 -3.5685157e-002  7.1106356e-002
 -4.0080524e-002  7.5961125e-002
 -3.4565404e-002  8.5625224e-002
 -2.3025914e-002  9.2042027e-002
 -1.2509790e-002  8.9386265e-002
 -8.3912861e-003  7.7932820e-002
 -1.1343400e-002  6.3594021e-002
 -1.7916743e-002  5.3734256e-002
 -2.3841712e-002  5.2359735e-002
 -2.7171811e-002  5.7969797e-002
 -2.8949739e-002  6.5189069e-002
 -3.1261431e-002  6.8589411e-002
 -3.4694257e-002  6.5828223e-002
 -3.7578859e-002  5.8164138e-002
 -3.7641593e-002  4.8586206e-002
 -3.4541033e-002  3.9498468e-002
 -3.1023841e-002  3.1789312e-002
 -3.1273439e-002  2.5669236e-002
 -3.7796093e-002  2.1874020e-002
 -4.9036005e-002  2.1847083e-002
 -5.9879313e-002  2.6374389e-002
 -6.4807138e-002  3.4047842e-002
 -6.1510248e-002  4.1008677e-002
 -5.2261013e-002  4.2878498e-002
 -4.2173002e-002  3.7734601e-002
 -3.5720477e-002  2.7926558e-002
 -3.4077262e-002  1.9079279e-002
 -3.5170233e-002  1.6629378e-002
 -3.6006199e-002  2.2148892e-002
 -3.5255521e-002  3.2037690e-002
 -3.3949409e-002  3.9689917e-002
 -3.3903648e-002  3.9740434e-002
 -3.5551041e-002  3.1471927e-002
 -3.7176727e-002  1.9085227e-002
 -3.6374413e-002  8.7507015e-003
 -3.2535973e-002  4.5252429e-003
 -2.8109840e-002  5.9179915e-003
 -2.7166421e-002  8.8727062e-003
 -3.2077214e-002  9.1603984e-003
 -4.0967017e-002  5.7042631e-003
 -4.8176142e-002  1.3603973e-003
 -4.7910839e-002  6.5300810e-004
 -3.8661615e-002  6.1533427e-003
 -2.5070504e-002  1.6283995e-002
 -1.5476032e-002  2.6209017e-002
 -1.6576420e-002  3.1172888e-002
 -2.8771866e-002  2.9891547e-002
 -4.5500248e-002  2.5431239e-002
 -5.7258658e-002  2.2826658e-002
 -5.7595513e-002  2.5169343e-002
 -4.6957520e-002  3.1095371e-002
 -3.2036354e-002  3.5557436e-002
 -2.1056440e-002  3.3557386e-002
 -1.8533951e-002  2.4160779e-002
 -2.3035844e-002  1.1746076e-002
 -2.9184215e-002  3.2687730e-003
 -3.2044365e-002  3.3761580e-003
 -3.0472707e-002  1.0786726e-002
 -2.7163606e-002  1.8700225e-002
 -2.5654746e-002  1.9358668e-002
 -2.6996606e-002  9.6752969e-003
 -2.8740459e-002 -6.0161883e-003
 -2.7028241e-002 -1.8290611e-002
 -1.9886649e-002 -1.8674333e-002
 -9.1177345e-003 -5.4387153e-003
  7.6366057e-004  1.4916081e-002
  5.6639614e-003  3.1647911e-002
  4.5384851e-003  3.6567712e-002
 -3.5059430e-004  2.9167785e-002
 -5.8314012e-003  1.6459785e-002
 -1.0506201e-002  7.8367021e-003
 -1.5506529e-002  8.6086209e-003
 -2.2691281e-002  1.6636192e-002
 -3.1696294e-002  2.4419976e-002
 -3.8662909e-002  2.4871147e-002
 -3.7969603e-002  1.6615040e-002
 -2.6129607e-002  5.0497446e-003
 -4.9216366e-003 -1.4579898e-003
  1.8813466e-002  2.7407365e-003
  3.6834571e-002  1.6960013e-002
  4.4367213e-002  3.5045029e-002
  4.2586943e-002  4.9636891e-002
  3.7264896e-002  5.6610168e-002
  3.4428187e-002  5.6537945e-002
  3.6342380e-002  5.2769843e-002
  4.0501597e-002  4.8075555e-002
  4.2194231e-002  4.2825900e-002
  3.8234509e-002  3.5735527e-002
  2.9118341e-002  2.6161732e-002
  1.8060533e-002  1.5503887e-002
  8.0629482e-003  6.3745129e-003
 -1.8316356e-004  5.1044747e-004
 -8.0614867e-003 -2.6866504e-003
 -1.6636044e-002 -5.2021278e-003
 -2.4697953e-002 -8.0813985e-003
 -2.9378695e-002 -9.9099781e-003
 -2.8956843e-002 -8.0027182e-003
 -2.5493272e-002 -1.5864215e-003
 -2.4401059e-002  5.9704605e-003
 -3.0517828e-002  8.5537704e-003
 -4.3484792e-002  2.1700562e-003
 -5.6521536e-002 -1.0461536e-002
 -6.0691584e-002 -2.0144431e-002
 -5.2302575e-002 -1.7519285e-002
 -3.7837904e-002 -1.6714000e-003
 -3.1388677e-002  1.6173234e-002
 -4.4576587e-002  1.8742126e-002
 -7.5005999e-002 -3.4242182e-003
 -1.0194699e-001 -3.9445449e-002
 -9.4581286e-002 -5.7417920e-002
 -3.0115890e-002 -1.9723334e-002
  8.8576370e-002  9.2691498e-002
  2.2742134e-001  2.6185608e-001
  3.3346028e-001  4.3390898e-001
  3.5991286e-001  5.4236510e-001
  2.9060571e-001  5.4208897e-001
  1.4953890e-001  4.3418837e-001
 -1.0211710e-002  2.6651867e-001
 -1.3233021e-001  1.0866513e-001
 -1.8345095e-001  1.5786905e-002
 -1.6551450e-001  2.5945989e-003
 -1.0887459e-001  4.1922663e-002
 -5.2015717e-002  8.6724809e-002
 -2.0818287e-002  1.0028994e-001
 -1.8909709e-002  7.5484845e-002
 -3.2608739e-002  3.2733064e-002
 -4.4603839e-002  9.9810644e-004
 -4.6094945e-002 -3.4213247e-003
 -4.0120170e-002  1.4087023e-002
 -3.5564387e-002  3.4118783e-002
 -3.8025957e-002  3.9831745e-002
 -4.4828304e-002  2.9433605e-002
 -4.7551378e-002  1.5719395e-002
 -3.9405674e-002  1.4328659e-002
 -2.1403775e-002  3.0508838e-002
 -2.4254728e-003  5.4677158e-002
  6.8537862e-003  6.9844185e-002
  1.5171021e-003  6.4711809e-002
 -1.4014504e-002  4.2331079e-002
 -2.8922497e-002  1.7860391e-002
 -3.3306455e-002  7.3999764e-003
 -2.4559953e-002  1.6479817e-002
 -8.5989437e-003  3.6641839e-002
  4.7130777e-003  5.2406222e-002
  8.4452300e-003  5.3014981e-002
  2.9578956e-003  4.0139575e-002
 -4.9798685e-003  2.6080688e-002
 -7.2176592e-003  2.4199956e-002
  1.4865835e-004  3.8851019e-002
  1.4584230e-002  6.2301793e-002
  2.9173024e-002  8.0372624e-002
  3.7398457e-002  8.2524549e-002
  3.7124004e-002  6.8942106e-002
  3.1350220e-002  4.9859821e-002
  2.5829309e-002  3.8218366e-002
  2.5502182e-002  4.1254349e-002
  3.2119106e-002  5.6806426e-002
  4.4122753e-002  7.6186180e-002
  5.8250622e-002  9.0742913e-002
  7.1494208e-002  9.7099519e-002
  8.2175927e-002  9.7732346e-002
  9.0017465e-002  9.7485572e-002
  9.5863233e-002  9.9509458e-002
  1.0143560e-001  1.0379797e-001
  1.0910520e-001  1.0895987e-001
  1.2122044e-001  1.1493919e-001
  1.3892586e-001  1.2390783e-001
  1.6103142e-001  1.3840943e-001
  1.8392453e-001  1.5836173e-001
  2.0285494e-001  1.7963320e-001
  2.1417820e-001  1.9570747e-001
  2.1699131e-001  2.0128293e-001
  2.1318791e-001  1.9544674e-001
  2.0573378e-001  1.8193076e-001
  1.9651338e-001  1.6659379e-001
  1.8517887e-001  1.5392992e-001
  1.6998849e-001  1.4508696e-001
  1.4975358e-001  1.3834746e-001
  1.2530044e-001  1.3108726e-001
  9.9357454e-002  1.2156912e-001
  7.4819853e-002  1.0935242e-001
  5.2976392e-002  9.4811044e-002
  3.3275944e-002  7.8790447e-002
  1.4745931e-002  6.2934017e-002
 -2.0462864e-003  5.0097241e-002
 -1.4443151e-002  4.3636684e-002
 -1.9354300e-002  4.5281610e-002
 -1.6095508e-002  5.2843902e-002
 -8.1113310e-003  5.9943747e-002
 -1.7335077e-003  5.8958652e-002
 -2.4165283e-003  4.5859113e-002
 -1.0973634e-002  2.3759851e-002
 -2.2604686e-002  2.2511260e-003
 -2.9958345e-002 -7.8635614e-003
 -2.8174051e-002 -1.2060155e-003
 -1.8711830e-002  1.8411472e-002
 -8.7879197e-003  4.0111843e-002
 -6.7368696e-003  5.2723229e-002
 -1.6327330e-002  5.1682930e-002
 -3.3897110e-002  4.1353656e-002
 -5.0584552e-002  3.1282462e-002
 -5.7912686e-002  2.9265130e-002
 -5.3091101e-002  3.6059253e-002
 -4.0296559e-002  4.5561135e-002
 -2.7251429e-002  4.9967714e-002
 -1.9883649e-002  4.5863208e-002
 -1.8730421e-002  3.6765124e-002
 -1.9696600e-002  3.0249339e-002
 -1.8113655e-002  3.2070260e-002
 -1.2791930e-002  4.1816015e-002
 -6.8557176e-003  5.3278462e-002
 -4.8885157e-003  5.9038772e-002
 -8.7406119e-003  5.5711426e-002
 -1.5530176e-002  4.5804684e-002
 -1.9467878e-002  3.5185010e-002
 -1.6176002e-002  2.8437088e-002
 -6.1494454e-003  2.5902806e-002
  5.3566927e-003  2.4550176e-002
  1.1972965e-002  2.1523761e-002
  1.0698538e-002  1.7116106e-002
  3.7298277e-003  1.4378754e-002
 -3.6852266e-003  1.5729667e-002
 -7.5663727e-003  1.9625081e-002
 -8.3541244e-003  2.0485693e-002
 -1.0373717e-002  1.2561502e-002
 -1.7997664e-002 -5.0278900e-003
 -3.1534399e-002 -2.6190220e-002
 -4.6103065e-002 -4.0791042e-002
 -5.4603744e-002 -4.1098921e-002
 -5.2540341e-002 -2.7091296e-002
 -4.1367775e-002 -6.8564088e-003
 -2.7753191e-002  8.5136545e-003
 -1.9337012e-002  1.1908699e-002
 -2.0060170e-002  4.2755991e-003
 -2.8211804e-002 -6.9347681e-003
 -3.8413572e-002 -1.3572608e-002
 -4.5645446e-002 -1.2297162e-002
 -4.8367840e-002 -6.0547614e-003
 -4.8555979e-002 -8.2643300e-004
 -4.9099259e-002 -5.7118477e-004
 -5.0948080e-002 -4.4825746e-003
 -5.2438428e-002 -8.4504983e-003
 -5.1072295e-002 -9.1260191e-003
 -4.6159514e-002 -7.0632213e-003
 -3.9925442e-002 -6.2316544e-003
 -3.5993077e-002 -1.0311405e-002
 -3.6450820e-002 -1.8962418e-002
 -3.9933119e-002 -2.7221771e-002
 -4.2473971e-002 -2.8803712e-002
 -4.0631793e-002 -2.0773516e-002
 -3.4621151e-002 -6.0364813e-003
 -2.8818476e-002  8.3231812e-003
 -2.8952377e-002  1.5713395e-002
 -3.7850362e-002  1.4147431e-002
 -5.2647211e-002  6.9887304e-003
 -6.5779671e-002 -3.6232885e-005
 -6.9358566e-002 -3.1100079e-003
 -6.0117161e-002 -2.5331360e-003
 -4.1873133e-002 -1.6925589e-003
 -2.3528967e-002 -3.7280423e-003
 -1.4028590e-002 -8.9092024e-003
 -1.7251830e-002 -1.4572467e-002
 -2.9950474e-002 -1.7384234e-002
 -4.3944825e-002 -1.5862257e-002
 -5.1146718e-002 -1.1234876e-002
 -4.8149614e-002 -6.0849534e-003
 -3.7792137e-002 -2.3827330e-003
 -2.6858372e-002 -5.4358882e-004
 -2.1556271e-002 -1.0946428e-004
 -2.3681023e-002 -1.0564596e-003
 -2.9913289e-002 -4.2265527e-003
 -3.4471011e-002 -1.0265631e-002
 -3.3305135e-002 -1.8182375e-002
 -2.7099567e-002 -2.5107863e-002
 -2.0806304e-002 -2.7857049e-002
 -2.0115177e-002 -2.5338272e-002
 -2.7096204e-002 -1.9726073e-002
 -3.8218376e-002 -1.5276562e-002
 -4.6198998e-002 -1.5469463e-002
 -4.4799665e-002 -2.0655157e-002
 -3.3275617e-002 -2.8048256e-002
 -1.7299810e-002 -3.4047701e-002
 -5.3631351e-003 -3.6678441e-002
 -2.9088589e-003 -3.6287420e-002
 -8.2984560e-003 -3.3982557e-002
 -1.3784071e-002 -2.9535043e-002
 -1.1072095e-002 -2.1132761e-002
  2.1782119e-003 -7.6888063e-003
  1.9779281e-002  8.2170902e-003
  3.0590670e-002  1.9863818e-002
  2.6108595e-002  1.9851609e-002
  6.6928467e-003  5.6355455e-003
 -1.8214918e-002 -1.7212158e-002
 -3.6446092e-002 -3.7277294e-002
 -4.1544050e-002 -4.4350999e-002
 -3.7161214e-002 -3.6510942e-002
 -3.3795634e-002 -2.1655836e-002
 -4.0380741e-002 -1.1968922e-002
 -5.6759502e-002 -1.4814708e-002
 -7.3300729e-002 -2.7205628e-002
 -7.8213148e-002 -3.8241205e-002
 -6.7152772e-002 -3.7961267e-002
 -4.7497170e-002 -2.5719500e-002
 -3.3383561e-002 -1.1022501e-002
 -3.4768007e-002 -5.6467415e-003
 -4.9027079e-002 -1.3192983e-002
 -6.2237338e-002 -2.4921702e-002
 -6.0208511e-002 -2.6445046e-002
 -4.1164131e-002 -1.0867678e-002
 -1.9620799e-002  1.2329307e-002
 -1.6602892e-002  2.1662726e-002
 -4.1735312e-002  5.9489433e-004
 -8.0372314e-002 -4.4464212e-002
 -9.7010977e-002 -7.9759695e-002
 -5.5847004e-002 -6.0418004e-002
  5.3466236e-002  4.0398604e-002
  2.0218678e-001  2.0796824e-001
  3.3204594e-001  3.8553317e-001
  3.8463411e-001  5.0052428e-001
  3.3351269e-001  5.0337270e-001
  1.9948882e-001  3.9539386e-001
  3.9306235e-002  2.2807479e-001
 -8.5382825e-002  7.3908942e-002
 -1.3962447e-001 -1.3092276e-002
 -1.2897562e-001 -2.3156392e-002
 -8.8808779e-002  1.1733717e-002
 -5.8414615e-002  4.4298783e-002
 -5.7427633e-002  4.3416031e-002
 -7.8835231e-002  1.0132322e-002
 -1.0020616e-001 -2.9754970e-002
 -1.0275648e-001 -4.8324856e-002
 -8.4272543e-002 -3.5920038e-002
 -5.7985269e-002 -5.5222720e-003
 -4.0496738e-002  1.9638042e-002
 -3.9248076e-002  2.4020435e-002
 -4.8753172e-002  9.5869904e-003
 -5.7151720e-002 -8.6897486e-003
 -5.6652610e-002 -1.6352931e-002
 -4.9353529e-002 -1.0685428e-002
 -4.4074056e-002 -9.9154422e-004
 -4.7764954e-002  9.4752610e-004
 -5.8807546e-002 -8.2806670e-003
 -6.7742048e-002 -2.0710297e-002
 -6.4723492e-002 -2.4032547e-002
 -4.7569232e-002 -1.2486004e-002
 -2.4023658e-002  7.4508917e-003
 -6.3754358e-003  2.1513138e-002
 -2.7482148e-003  1.8688214e-002
 -1.1476894e-002  2.0882011e-004
 -2.2772350e-002 -2.0798801e-002
 -2.5958162e-002 -2.8789332e-002
 -1.6865012e-002 -1.7327558e-002
 -9.3414245e-005  6.1044087e-003
  1.5069842e-002  2.5627864e-002
  2.1328942e-002  2.8436185e-002
  1.7785394e-002  1.3799991e-002
  9.3393012e-003 -6.9410007e-003
  2.2550312e-003 -1.8923252e-002
 -1.1321249e-004 -1.4172974e-002
  1.6308096e-003  3.7379367e-003
  5.1377707e-003  2.3677732e-002
  9.3100181e-003  3.5930477e-002
  1.5308057e-002  3.9099273e-002
  2.4983708e-002  4.0023745e-002
  3.8552087e-002  4.7412322e-002
  5.3778181e-002  6.4535621e-002
  6.7505478e-002  8.6634650e-002
  7.8173402e-002  1.0470561e-001
  8.6906170e-002  1.1226171e-001
  9.6252723e-002  1.0989884e-001
  1.0771163e-001  1.0442800e-001
  1.2033768e-001  1.0371123e-001
  1.3175235e-001  1.1143187e-001
  1.4059934e-001  1.2548565e-001
  1.4811169e-001  1.4052361e-001
  1.5703700e-001  1.5201176e-001
  1.6849660e-001  1.5841933e-001
  1.7950998e-001  1.6024554e-001
  1.8371138e-001  1.5756732e-001
  1.7538900e-001  1.4883132e-001
  1.5399679e-001  1.3222692e-001
  1.2554320e-001  1.0844439e-001
  9.9242838e-002  8.1991578e-002
  8.1640420e-002  5.9490656e-002
  7.2263381e-002  4.5662565e-002
  6.4253776e-002  4.0064578e-002
  4.9811572e-002  3.7264869e-002
  2.6433365e-002  3.0596671e-002
 -6.7431114e-004  1.6922133e-002
 -2.1853358e-002 -1.0748739e-003
 -2.9744705e-002 -1.6821874e-002
 -2.4556081e-002 -2.4547552e-002
 -1.3954818e-002 -2.3265498e-002
 -7.7370827e-003 -1.7174996e-002
 -1.1174124e-002 -1.2372334e-002
 -2.1938320e-002 -1.2432834e-002
 -3.2632935e-002 -1.6173605e-002
 -3.6823995e-002 -1.9127589e-002
 -3.3865424e-002 -1.7391940e-002
 -2.9045795e-002 -1.0829923e-002
 -2.9050330e-002 -3.2503186e-003
 -3.6564465e-002  3.9180878e-004
 -4.7961606e-002 -2.3339254e-003
 -5.5947808e-002 -9.6489099e-003
 -5.4924703e-002 -1.6870557e-002
 -4.5148959e-002 -1.9722759e-002
 -3.2439859e-002 -1.7068699e-002
 -2.3996307e-002 -1.1250383e-002
 -2.3444193e-002 -5.9808803e-003
 -2.8761715e-002 -3.5219156e-003
 -3.4306793e-002 -3.2409202e-003
 -3.5099769e-002 -2.3755138e-003
 -3.0186940e-002  1.6127095e-003
 -2.2582194e-002  8.9839562e-003
 -1.6417101e-002  1.7319481e-002
 -1.3609271e-002  2.2911413e-002
 -1.2795404e-002  2.2949982e-002
 -1.1082004e-002  1.7009239e-002
 -6.9386858e-003  7.0429272e-003
 -1.7968200e-003 -3.8045003e-003
  9.6187998e-004 -1.2652208e-002
 -1.2521954e-003 -1.7822199e-002
 -7.8679071e-003 -1.8960561e-002
 -1.5181583e-002 -1.6684456e-002
 -1.8760658e-002 -1.2215815e-002
 -1.6540352e-002 -7.1226567e-003
 -1.0453947e-002 -3.1983555e-003
 -5.3716398e-003 -2.1026104e-003
 -6.1023359e-003 -4.7900559e-003
 -1.4387939e-002 -1.0894263e-002
 -2.7818498e-002 -1.8612623e-002
 -4.1101863e-002 -2.5253621e-002
 -4.9002153e-002 -2.8442995e-002
 -4.9038145e-002 -2.7327673e-002
 -4.2609759e-002 -2.3121674e-002
 -3.4050428e-002 -1.8624241e-002
 -2.8153396e-002 -1.6698954e-002
 -2.7594095e-002 -1.8630768e-002
 -3.1557295e-002 -2.3265537e-002
 -3.6226763e-002 -2.7578745e-002
 -3.7030169e-002 -2.8479836e-002
 -3.1455689e-002 -2.4848621e-002
 -2.0863244e-002 -1.8514186e-002
 -1.0126007e-002 -1.3433713e-002
 -4.9977703e-003 -1.3466737e-002
 -8.5548505e-003 -1.9959437e-002
 -1.8972270e-002 -3.0823653e-002
 -3.0178164e-002 -4.1651196e-002
 -3.5236268e-002 -4.8207774e-002
 -3.0591695e-002 -4.8738840e-002
 -1.8398653e-002 -4.4625140e-002
 -5.2077458e-003 -3.9006480e-002
  2.1635885e-003 -3.4505720e-002
  9.5615729e-004 -3.1606866e-002
 -5.9786481e-003 -2.8839216e-002
 -1.2501141e-002 -2.4407128e-002
 -1.3798466e-002 -1.7986786e-002
 -1.0043304e-002 -1.1267246e-002
 -6.3635428e-003 -6.9041488e-003
 -9.1458554e-003 -6.6967775e-003
 -2.1117128e-002 -1.0401631e-002
 -3.8876721e-002 -1.6046857e-002
 -5.4655380e-002 -2.1367464e-002
 -6.1213489e-002 -2.5232693e-002
 -5.6519675e-002 -2.7997590e-002
 -4.5044688e-002 -3.0755666e-002
 -3.4804214e-002 -3.4260234e-002
 -3.2282736e-002 -3.8443968e-002
 -3.8585782e-002 -4.2783021e-002
 -4.9399023e-002 -4.6932462e-002
 -5.8268278e-002 -5.0777350e-002
 -6.0866034e-002 -5.3883372e-002
 -5.7246164e-002 -5.4926527e-002
 -5.0997911e-002 -5.2068388e-002
 -4.6250301e-002 -4.4397753e-002
 -4.4997794e-002 -3.3439721e-002
 -4.6411645e-002 -2.3189929e-002
 -4.8235585e-002 -1.8119572e-002
 -4.8797200e-002 -2.0179524e-002
 -4.7950252e-002 -2.6910418e-002
 -4.6569249e-002 -3.2552004e-002
 -4.5354441e-002 -3.1745714e-002
 -4.4140089e-002 -2.3462114e-002
 -4.2388054e-002 -1.2278440e-002
 -4.0144901e-002 -5.6451404e-003
 -3.8439422e-002 -8.7780245e-003
 -3.8505583e-002 -2.0712461e-002
 -4.0494446e-002 -3.4549532e-002
 -4.2791269e-002 -4.1868064e-002
 -4.2927442e-002 -3.8477539e-002
 -3.9425953e-002 -2.7321602e-002
 -3.3362763e-002 -1.6391686e-002
 -2.8165946e-002 -1.3168389e-002
 -2.7540421e-002 -1.9497479e-002
 -3.2870053e-002 -3.0603648e-002
 -4.1872430e-002 -3.8813325e-002
 -4.9748405e-002 -3.9178680e-002
 -5.1981828e-002 -3.2767999e-002
 -4.7144956e-002 -2.5394795e-002
 -3.7698264e-002 -2.2895142e-002
 -2.8405263e-002 -2.6752269e-002
 -2.3400736e-002 -3.3339872e-002
 -2.3904950e-002 -3.7194469e-002
 -2.7901916e-002 -3.5576856e-002
 -3.1866315e-002 -3.0647876e-002
 -3.3163264e-002 -2.7613417e-002
 -3.1498643e-002 -3.0331798e-002
 -2.8645915e-002 -3.8029434e-002
 -2.6933699e-002 -4.5736116e-002
 -2.7589793e-002 -4.8103628e-002
 -3.0027830e-002 -4.3586144e-002
 -3.2439123e-002 -3.5715118e-002
 -3.3037617e-002 -3.0511594e-002
 -3.1055585e-002 -3.1873769e-002
 -2.7071648e-002 -3.8713025e-002
 -2.2477435e-002 -4.5875417e-002
 -1.8751957e-002 -4.8119581e-002
 -1.6863526e-002 -4.3940870e-002
 -1.7189520e-002 -3.6562395e-002
 -1.9617881e-002 -3.1369091e-002
 -2.3781174e-002 -3.2045697e-002
 -2.9046858e-002 -3.8240352e-002
 -3.4463394e-002 -4.6327556e-002
 -3.8736769e-002 -5.2223995e-002
 -4.0557335e-002 -5.3952173e-002
 -3.9145930e-002 -5.2042321e-002
 -3.4830982e-002 -4.8036437e-002
 -2.9273736e-002 -4.2841353e-002
 -2.4949391e-002 -3.6466732e-002
 -2.4100858e-002 -2.9239391e-002
 -2.7582603e-002 -2.2905626e-002
 -3.4223000e-002 -1.9988410e-002
 -4.1286101e-002 -2.1593835e-002
 -4.5867345e-002 -2.5454829e-002
 -4.6502019e-002 -2.6373426e-002
 -4.3926902e-002 -1.9444250e-002
 -4.0469654e-002 -4.0689058e-003
 -3.8347382e-002  1.4430611e-002
 -3.8068627e-002  2.7315574e-002
 -3.8032221e-002  2.7770761e-002
 -3.5681536e-002  1.5569679e-002
 -2.9451734e-002 -2.3758690e-003
 -1.9905197e-002 -1.5976464e-002
 -9.2419335e-003 -1.7935115e-002
  5.9636518e-004 -7.6207984e-003
  9.5738636e-003  9.4774003e-003
  1.9501682e-002  2.5791665e-002
  3.1948220e-002  3.6046130e-002
  4.5798588e-002  3.9013961e-002
  5.6427940e-002  3.6092030e-002
  5.7852709e-002  2.8801145e-002
  4.6757300e-002  1.7739131e-002
  2.5482434e-002  3.7034001e-003
  1.5279893e-003 -1.0645634e-002
 -1.6665826e-002 -2.0904717e-002
 -2.4992031e-002 -2.3518898e-002
 -2.6239860e-002 -1.8979898e-002
 -2.7867485e-002 -1.2515408e-002
 -3.6258853e-002 -1.0926513e-002
 -5.1695801e-002 -1.7488639e-002
 -6.7755528e-002 -2.8778196e-002
 -7.6039444e-002 -3.6749357e-002
 -7.2671822e-002 -3.4824787e-002
 -6.1499220e-002 -2.3614802e-002
 -5.1301839e-002 -1.1381741e-002
 -4.8848822e-002 -8.1284074e-003
 -5.3224103e-002 -1.7502149e-002
 -5.6383353e-002 -3.3020824e-002
 -5.0207226e-002 -4.2467392e-002
 -3.4815077e-002 -3.7833346e-002
 -2.1065443e-002 -2.3169952e-002
 -2.3549987e-002 -1.3130624e-002
 -4.7777833e-002 -2.1472309e-002
 -8.0677385e-002 -4.7015239e-002
 -9.2817784e-002 -6.7943117e-002
 -5.3712785e-002 -5.1091851e-002
  4.7834215e-002  2.7444542e-002
  1.9115084e-001  1.6282825e-001
  3.2850869e-001  3.1680000e-001
  4.0645484e-001  4.3305050e-001
  3.9255087e-001  4.6528772e-001
  2.9199910e-001  4.0167732e-001
  1.4468036e-001  2.7110044e-001
  4.3997025e-003  1.2741512e-001
 -8.7257476e-002  2.1298688e-002
 -1.1782079e-001 -2.3655429e-002
 -1.0339117e-001 -1.7481427e-002
 -7.3455283e-002  8.7499162e-003
 -5.2244426e-002  2.4661319e-002
 -4.7845865e-002  1.7376264e-002
 -5.3805008e-002 -5.7748454e-003
 -5.9158919e-002 -2.7571367e-002
 -5.8174410e-002 -3.5052605e-002
 -5.3304601e-002 -2.7613986e-002
 -5.0633461e-002 -1.4738506e-002
 -5.3111456e-002 -7.0957765e-003
 -5.7528391e-002 -8.5988595e-003
 -5.7447238e-002 -1.5067154e-002
 -4.9274310e-002 -1.9304170e-002
 -3.6030749e-002 -1.7657654e-002
 -2.5704858e-002 -1.2707009e-002
 -2.5368194e-002 -1.0380088e-002
 -3.5717481e-002 -1.4415157e-002
 -5.0228633e-002 -2.2884645e-002
 -5.9675034e-002 -2.9607212e-002
 -5.8458368e-002 -2.9022003e-002
 -4.8133173e-002 -2.0593310e-002
 -3.5687900e-002 -9.2757796e-003
 -2.8176999e-002 -1.7820264e-003
 -2.7811921e-002 -1.6332177e-003
 -3.1124682e-002 -6.7763758e-003
 -3.2331285e-002 -1.1305875e-002
 -2.8059054e-002 -9.8248923e-003
 -1.9727475e-002 -1.0967666e-003
 -1.1944871e-002  1.1493908e-002
 -8.5523937e-003  2.2640835e-002
 -9.4895605e-003  2.8727031e-002
 -1.0936499e-002  2.9725068e-002
 -8.4930159e-003  2.8315850e-002
 -6.7438120e-004  2.7446459e-002
  9.9718996e-003  2.8370281e-002
  1.8847581e-002  3.0492572e-002
  2.2839041e-002  3.2668845e-002
  2.2594521e-002  3.4681581e-002
  2.1966805e-002  3.7605722e-002
  2.5171913e-002  4.2905108e-002
  3.3945680e-002  5.1256744e-002
  4.6679926e-002  6.2058467e-002
  5.9985616e-002  7.3970983e-002
  7.1129679e-002  8.5792844e-002
  7.9560431e-002  9.6958950e-002
  8.6604540e-002  1.0723692e-001
  9.3938978e-002  1.1619391e-001
  1.0240227e-001  1.2319165e-001
  1.1202451e-001  1.2811695e-001
  1.2271810e-001  1.3201239e-001
  1.3465825e-001  1.3683146e-001
  1.4750062e-001  1.4403779e-001
  1.5912226e-001  1.5294044e-001
  1.6530832e-001  1.6020990e-001
  1.6137642e-001  1.6130342e-001
  1.4517536e-001  1.5323717e-001
  1.1940388e-001  1.3679689e-001
  9.1202678e-002  1.1655043e-001
  6.8639097e-002  9.8248450e-002
  5.6063714e-002  8.5290501e-002
  5.1449642e-002  7.6659574e-002
  4.7755424e-002  6.7838691e-002
  3.7632273e-002  5.4230171e-002
  1.8558263e-002  3.4754520e-002
 -5.2099953e-003  1.3054825e-002
 -2.5230343e-002 -4.6011933e-003
 -3.4363022e-002 -1.3364763e-002
 -3.1499581e-002 -1.3051014e-002
 -2.2267059e-002 -8.3561125e-003
 -1.5280877e-002 -5.8866806e-003
 -1.6500231e-002 -9.9623323e-003
 -2.5495980e-002 -2.0069220e-002
 -3.6139093e-002 -3.1565170e-002
 -4.1054632e-002 -3.9012767e-002
 -3.6763172e-002 -3.9800002e-002
 -2.6041690e-002 -3.5597076e-002
 -1.6059213e-002 -3.0809088e-002
 -1.3640284e-002 -2.9235823e-002
 -2.0988159e-002 -3.1418079e-002
 -3.4532017e-002 -3.4448498e-002
 -4.7466583e-002 -3.4302993e-002
 -5.4053185e-002 -2.8945421e-002
 -5.2873058e-002 -2.0020229e-002
 -4.7149719e-002 -1.2001257e-002
 -4.2256945e-002 -9.4274338e-003
 -4.2221338e-002 -1.4013354e-002
 -4.7492856e-002 -2.3643037e-002
 -5.4986742e-002 -3.3603573e-002
 -6.0033127e-002 -3.9301683e-002
 -5.8903444e-002 -3.8629666e-002
 -5.0551846e-002 -3.2664997e-002
 -3.6925932e-002 -2.4562221e-002
 -2.2066181e-002 -1.7587622e-002
 -1.0560752e-002 -1.3637015e-002
 -5.7849565e-003 -1.2845514e-002
 -8.7037632e-003 -1.4306286e-002
 -1.7307444e-002 -1.6995551e-002
 -2.7233293e-002 -2.0287280e-002
 -3.3517476e-002 -2.3851833e-002
 -3.2950356e-002 -2.7313756e-002
 -2.5860116e-002 -3.0098188e-002
 -1.6212308e-002 -3.1664091e-002
 -9.7173383e-003 -3.1893595e-002
 -1.0791075e-002 -3.1247928e-002
 -2.0135878e-002 -3.0536584e-002
 -3.4319434e-002 -3.0390944e-002
 -4.7758641e-002 -3.0905705e-002
 -5.5731356e-002 -3.1546978e-002
 -5.6674985e-002 -3.1515140e-002
 -5.2394860e-002 -3.0210555e-002
 -4.6228483e-002 -2.7549975e-002
 -4.0810427e-002 -2.4128570e-002
 -3.6837868e-002 -2.1101470e-002
 -3.3677382e-002 -1.9977031e-002
 -3.0900993e-002 -2.2175078e-002
 -2.9353219e-002 -2.8438848e-002
 -3.0651162e-002 -3.8234928e-002
 -3.5495424e-002 -4.9497839e-002
 -4.2342830e-002 -5.9172306e-002
 -4.7707045e-002 -6.4433299e-002
 -4.8287150e-002 -6.4088194e-002
 -4.3497623e-002 -5.9308668e-002
 -3.6488104e-002 -5.3087908e-002
 -3.2630775e-002 -4.8627874e-002
 -3.6158173e-002 -4.7601128e-002
 -4.7132444e-002 -4.9349385e-002
 -6.0887380e-002 -5.1675377e-002
 -7.0452916e-002 -5.2526196e-002
 -7.0489500e-002 -5.1471268e-002
 -6.0318082e-002 -4.9872311e-002
 -4.4183968e-002 -4.9711519e-002
 -2.8707772e-002 -5.1971509e-002
 -1.9277849e-002 -5.5887357e-002
 -1.7546846e-002 -5.9592088e-002
 -2.1370287e-002 -6.1603595e-002
 -2.6798118e-002 -6.1885839e-002
 -3.0507509e-002 -6.1615777e-002
 -3.1209799e-002 -6.1830564e-002
 -2.9413774e-002 -6.2276661e-002
 -2.6335348e-002 -6.1516952e-002
 -2.2941279e-002 -5.8440788e-002
 -1.9774649e-002 -5.3897209e-002
 -1.7464230e-002 -5.0927941e-002
 -1.7042046e-002 -5.2902390e-002
 -1.9674875e-002 -6.0755291e-002
 -2.5853510e-002 -7.1424341e-002
 -3.4642493e-002 -7.9008194e-002
 -4.3701805e-002 -7.8326910e-002
 -5.0177897e-002 -6.8603867e-002
 -5.1922292e-002 -5.4595338e-002
 -4.8400711e-002 -4.4077686e-002
 -4.0851216e-002 -4.3193361e-002
 -3.1741163e-002 -5.2685323e-002
 -2.3763573e-002 -6.7489672e-002
 -1.8934345e-002 -8.0034388e-002
 -1.7928157e-002 -8.4849989e-002
 -1.9915583e-002 -8.1498492e-002
 -2.2884069e-002 -7.4070499e-002
 -2.4434021e-002 -6.7877726e-002
 -2.2982889e-002 -6.6057895e-002
 -1.8606238e-002 -6.8345183e-002
 -1.3089144e-002 -7.2394786e-002
 -8.9186567e-003 -7.6023416e-002
 -7.6943610e-003 -7.8455015e-002
 -9.1072104e-003 -7.9732004e-002
 -1.1082410e-002 -7.9283874e-002
 -1.1247826e-002 -7.5445079e-002
 -8.7458988e-003 -6.6764842e-002
 -4.9592447e-003 -5.4050926e-002
 -2.5918634e-003 -4.1184329e-002
 -3.6685545e-003 -3.3483254e-002
 -7.9041042e-003 -3.4330177e-002
 -1.2745668e-002 -4.2568656e-002
 -1.5116017e-002 -5.2812014e-002
 -1.3640295e-002 -5.8840249e-002
 -9.6987172e-003 -5.7777310e-002
 -6.3469444e-003 -5.1869220e-002
 -6.0385772e-003 -4.6556705e-002
 -8.8658800e-003 -4.6127407e-002
 -1.2770615e-002 -5.0345958e-002
 -1.5513602e-002 -5.4687619e-002
 -1.6739801e-002 -5.4017477e-002
 -1.8370778e-002 -4.6909327e-002
 -2.2729555e-002 -3.7138207e-002
 -2.9820481e-002 -3.1031983e-002
 -3.6107783e-002 -3.2668987e-002
 -3.6057430e-002 -4.0437975e-002
 -2.5821602e-002 -4.7827114e-002
 -6.3580097e-003 -4.7780341e-002
  1.6333194e-002 -3.7531398e-002
  3.4429614e-002 -2.0394302e-002
  4.2785804e-002 -3.3892698e-003
  4.1732481e-002  7.2900303e-003
  3.6233196e-002  9.6325337e-003
  3.2139031e-002  5.8534338e-003
  3.2230970e-002 -2.5678074e-004
  3.4866767e-002 -6.1476896e-003
  3.5844723e-002 -1.1250243e-002
  3.1749929e-002 -1.5684927e-002
  2.2190719e-002 -1.8789292e-002
  9.4205638e-003 -1.9340687e-002
 -3.7541622e-003 -1.7331953e-002
 -1.5768277e-002 -1.5351855e-002
 -2.6270091e-002 -1.7469491e-002
 -3.4721959e-002 -2.5844424e-002
 -3.9425391e-002 -3.7797770e-002
 -3.8477486e-002 -4.6362112e-002
 -3.2149556e-002 -4.4938184e-002
 -2.4245605e-002 -3.2865322e-002
 -2.0498715e-002 -1.7228513e-002
 -2.4403108e-002 -8.5406354e-003
 -3.3590790e-002 -1.2774680e-002
 -4.0348764e-002 -2.5932444e-002
 -3.7101211e-002 -3.6282475e-002
 -2.3402715e-002 -3.3752559e-002
 -8.6720405e-003 -1.9601023e-002
 -7.0773317e-003 -7.9630020e-003
 -2.6294519e-002 -1.5812231e-002
 -5.7682534e-002 -4.6963883e-002
 -7.6070053e-002 -8.1936687e-002
 -5.1840859e-002 -8.3437355e-002
  3.0026208e-002 -1.7495259e-002
  1.5575174e-001  1.2172574e-001
  2.8361014e-001  2.9999909e-001
  3.6165986e-001  4.5427782e-001
  3.5366098e-001  5.2312247e-001
  2.5849311e-001  4.7930595e-001
  1.1160317e-001  3.4489781e-001
 -3.2553236e-002  1.7935589e-001
 -1.2705564e-001  4.7548374e-002
 -1.5307575e-001 -1.3044484e-002
 -1.2388390e-001 -6.9316983e-003
 -7.2029144e-002  2.9880138e-002
 -2.9137314e-002  5.6507083e-002
 -1.0732248e-002  5.1855636e-002
 -1.3517208e-002  2.2632176e-002
 -2.3949967e-002 -7.7257704e-003
 -3.0252102e-002 -1.8870153e-002
 -2.9574589e-002 -7.5462224e-003
 -2.6921205e-002  1.2805467e-002
 -2.8712248e-002  2.4298293e-002
 -3.6778058e-002  1.8309345e-002
 -4.7247504e-002  4.5551325e-004
 -5.4054364e-002 -1.5499609e-002
 -5.3671408e-002 -1.8967603e-002
 -4.7189043e-002 -9.9888814e-003
 -3.8685300e-002  2.2563243e-003
 -3.1858082e-002  7.6283095e-003
 -2.7808500e-002  2.9038087e-003
 -2.5462429e-002 -6.6965800e-003
 -2.3633129e-002 -1.2768817e-002
 -2.2454259e-002 -1.0871204e-002
 -2.2881300e-002 -3.7696833e-003
 -2.4841950e-002  1.5597314e-003
 -2.6171512e-002  6.3479230e-005
 -2.3520648e-002 -7.2479393e-003
 -1.4903597e-002 -1.4491413e-002
 -1.6819408e-003 -1.6073813e-002
  1.1735679e-002 -1.1339066e-002
  2.0551829e-002 -4.8529601e-003
  2.2739603e-002 -2.2582859e-003
  2.0187210e-002 -5.4157417e-003
  1.7134468e-002 -1.0869946e-002
  1.6985870e-002 -1.2915365e-002
  2.0056231e-002 -8.5671033e-003
  2.3883347e-002 -1.5741756e-004
  2.5703317e-002  6.6958117e-003
  2.4926511e-002  8.0553424e-003
  2.3709394e-002  5.4955720e-003
  2.5183573e-002  5.4189764e-003
  3.0927598e-002  1.4153414e-002
  3.9926767e-002  3.2794193e-002
  4.9742159e-002  5.5758754e-002
  5.8987776e-002  7.4455183e-002
  6.8813333e-002  8.3288573e-002
  8.2075463e-002  8.3415036e-002
  1.0073908e-001  8.1469445e-002
  1.2357650e-001  8.4304936e-002
  1.4616252e-001  9.3927200e-002
  1.6347860e-001  1.0649201e-001
  1.7313111e-001  1.1584588e-001
  1.7679507e-001  1.1865235e-001
  1.7868220e-001  1.1686173e-001
  1.8207483e-001  1.1555409e-001
  1.8652097e-001  1.1803853e-001
  1.8793837e-001  1.2241274e-001
  1.8143823e-001  1.2246425e-001
  1.6482771e-001  1.1247745e-001
  1.4019597e-001  9.2143814e-002
  1.1245675e-001  6.7563701e-002
  8.6057462e-002  4.7311647e-002
  6.2420206e-002  3.6403698e-002
  4.0108774e-002  3.2728870e-002
  1.7420704e-002  2.8816474e-002
 -4.7891238e-003  1.7636838e-002
 -2.2577031e-002 -1.9115023e-003
 -3.1363441e-002 -2.3874294e-002
 -2.9642937e-002 -3.9585689e-002
 -2.1078963e-002 -4.4016021e-002
 -1.3166708e-002 -3.9419783e-002
 -1.2850306e-002 -3.3483341e-002
 -2.2146622e-002 -3.3491362e-002
 -3.6723728e-002 -4.0835101e-002
 -4.8665367e-002 -5.0150294e-002
 -5.1648856e-002 -5.3676745e-002
 -4.5164138e-002 -4.7524282e-002
 -3.4910471e-002 -3.5120678e-002
 -2.9110997e-002 -2.5106851e-002
 -3.3149189e-002 -2.5127471e-002
 -4.6126361e-002 -3.6087515e-002
 -6.1429272e-002 -5.1118563e-002
 -7.1038867e-002 -6.0229401e-002
 -7.0414280e-002 -5.7203084e-002
 -6.1096735e-002 -4.4085822e-002
 -4.9357396e-002 -2.9914593e-002
 -4.1888357e-002 -2.4538503e-002
 -4.1646683e-002 -3.1955924e-002
 -4.6259035e-002 -4.7549044e-002
 -5.0033162e-002 -6.1221729e-002
 -4.7970562e-002 -6.4072945e-002
 -3.9122714e-002 -5.4089276e-002
 -2.7244580e-002 -3.7162086e-002
 -1.8396137e-002 -2.2978551e-002
 -1.7234032e-002 -1.8847568e-002
 -2.4265861e-002 -2.5549633e-002
 -3.5736107e-002 -3.7738235e-002
 -4.5940026e-002 -4.8123251e-002
 -5.0417839e-002 -5.2243566e-002
 -4.8050537e-002 -5.0698402e-002
 -4.1010516e-002 -4.7586426e-002
 -3.2903352e-002 -4.6829156e-002
 -2.6588648e-002 -4.9238150e-002
 -2.2879487e-002 -5.2393392e-002
 -2.0891818e-002 -5.3188839e-002
 -1.9312959e-002 -5.0867518e-002
 -1.7697328e-002 -4.8167157e-002
 -1.6807841e-002 -4.9579834e-002
 -1.7958522e-002 -5.7930769e-002
 -2.1948378e-002 -7.1770446e-002
 -2.8332883e-002 -8.5545819e-002
 -3.5557153e-002 -9.2560396e-002
 -4.1565175e-002 -8.8891537e-002
 -4.4599258e-002 -7.5780278e-002
 -4.3717121e-002 -5.8910527e-002
 -3.9012536e-002 -4.5259578e-002
 -3.1662434e-002 -3.9409769e-002
 -2.3835786e-002 -4.1652617e-002
 -1.8332787e-002 -4.8726140e-002
 -1.7761975e-002 -5.6431487e-002
 -2.3325316e-002 -6.2055735e-002
 -3.3814722e-002 -6.5203963e-002
 -4.5588652e-002 -6.6743226e-002
 -5.4044734e-002 -6.7171831e-002
 -5.5826714e-002 -6.5733484e-002
 -5.0847870e-002 -6.1256115e-002
 -4.2592512e-002 -5.3830039e-002
 -3.6227544e-002 -4.5841594e-002
 -3.5532834e-002 -4.1256274e-002
 -4.0427164e-002 -4.3297744e-002
 -4.6863941e-002 -5.2112342e-002
 -4.9274926e-002 -6.4127024e-002
 -4.4252898e-002 -7.3890573e-002
 -3.3102469e-002 -7.7357744e-002
 -2.1469290e-002 -7.4453844e-002
 -1.6120785e-002 -6.9123672e-002
 -2.0787082e-002 -6.6759220e-002
 -3.3665517e-002 -7.0622667e-002
 -4.8226342e-002 -7.9675787e-002
 -5.6981981e-002 -8.9362727e-002
 -5.5849408e-002 -9.4687643e-002
 -4.6432235e-002 -9.3563628e-002
 -3.4915986e-002 -8.8125474e-002
 -2.8225051e-002 -8.3064020e-002
 -2.9919458e-002 -8.2322571e-002
 -3.8322607e-002 -8.6484190e-002
 -4.7908247e-002 -9.2727684e-002
 -5.2873088e-002 -9.7232752e-002
 -5.0604444e-002 -9.8181491e-002
 -4.2846952e-002 -9.6980876e-002
 -3.4155978e-002 -9.6839961e-002
 -2.8810752e-002 -9.9794329e-002
 -2.8289976e-002 -1.0459446e-001
 -3.0929112e-002 -1.0729036e-001
 -3.3677419e-002 -1.0425872e-001
 -3.4448364e-002 -9.5366980e-002
 -3.3369164e-002 -8.4809734e-002
 -3.2201089e-002 -7.8646827e-002
 -3.2484839e-002 -8.0640916e-002
 -3.3984340e-002 -8.9333932e-002
 -3.4747398e-002 -9.8762039e-002
 -3.2790981e-002 -1.0255168e-001
 -2.8077852e-002 -9.8472565e-002
 -2.3238744e-002 -9.0183063e-002
 -2.2108609e-002 -8.4675757e-002
 -2.6992580e-002 -8.7063720e-002
 -3.6563784e-002 -9.6345378e-002
 -4.6046070e-002 -1.0550977e-001
 -4.9869371e-002 -1.0611700e-001
 -4.5273490e-002 -9.4386550e-002
 -3.4407541e-002 -7.4486695e-002
 -2.3418537e-002 -5.6458908e-002
 -1.8933958e-002 -5.0005132e-002
 -2.4100843e-002 -5.8247802e-002
 -3.6688106e-002 -7.5695994e-002
 -5.0477331e-002 -9.1806123e-002
 -5.8983915e-002 -9.7647938e-002
 -5.9126445e-002 -9.1171311e-002
 -5.2596331e-002 -7.7581579e-002
 -4.4226895e-002 -6.5045869e-002
 -3.8794320e-002 -5.8946968e-002
 -3.8323505e-002 -5.8807292e-002
 -4.1570981e-002 -5.9795613e-002
 -4.5562041e-002 -5.7255429e-002
 -4.7777397e-002 -5.0579159e-002
 -4.7431241e-002 -4.3672224e-002
 -4.5115296e-002 -4.1659425e-002
 -4.1501757e-002 -4.6668581e-002
 -3.6403723e-002 -5.5870251e-002
 -2.8942463e-002 -6.3198340e-002
 -1.8625631e-002 -6.3371974e-002
 -6.3179493e-003 -5.5190997e-002
  5.7637702e-003 -4.1847951e-002
  1.4944764e-002 -2.8416564e-002
  1.9363993e-002 -1.8604310e-002
  1.8650133e-002 -1.3236164e-002
  1.3947771e-002 -1.1056308e-002
  7.4028475e-003 -1.0743397e-002
  1.5876839e-003 -1.2086542e-002
 -1.1010967e-003 -1.5498729e-002
  6.6663716e-004 -2.0723508e-002
  5.9487850e-003 -2.6385262e-002
  1.0891780e-002 -3.1057903e-002
  9.6277192e-003 -3.4914484e-002
 -2.8205563e-003 -4.0083534e-002
 -2.6756830e-002 -4.8724410e-002
 -5.5852680e-002 -6.0161978e-002
 -7.9102272e-002 -6.9742388e-002
 -8.6699872e-002 -7.1281968e-002
 -7.6563219e-002 -6.2012670e-002
 -5.6955525e-002 -4.6271151e-002
 -4.2378744e-002 -3.4270656e-002
 -4.4329714e-002 -3.5521584e-002
 -6.2876270e-002 -5.1112646e-002
 -8.5253939e-002 -7.0833191e-002
 -9.3803090e-002 -7.8755810e-002
 -7.8751807e-002 -6.4638088e-002
 -4.7136286e-002 -3.3390510e-002
 -2.0306819e-002 -4.6727852e-003
 -1.9946699e-002 -7.4104361e-004
 -5.0696997e-002 -2.9224403e-002
 -9.1517187e-002 -7.2507345e-002
 -1.0369989e-001 -9.2925325e-002
 -5.2900876e-002 -5.3123413e-002
  6.7188812e-002  5.9429470e-002
  2.2471917e-001  2.1923632e-001
  3.6113089e-001  3.7062200e-001
  4.1931369e-001  4.5402975e-001
  3.7296423e-001  4.3637524e-001
  2.4040610e-001  3.2809469e-001
  7.4801974e-002  1.7700409e-001
 -6.3226295e-002  4.2819036e-002
 -1.3471867e-001 -3.2675476e-002
 -1.3718626e-001 -4.2991244e-002
 -9.8708562e-002 -1.3529263e-002
 -5.7099206e-002  1.8259536e-002
 -3.8158119e-002  2.5618786e-002
 -4.5274644e-002  4.8157893e-003
 -6.4246147e-002 -2.8382987e-002
 -7.7273849e-002 -5.3104694e-002
 -7.5642502e-002 -5.7806908e-002
 -6.3378909e-002 -4.5795434e-002
 -5.1551057e-002 -3.0020971e-002
 -4.8859505e-002 -2.2545203e-002
 -5.5784160e-002 -2.6607973e-002
 -6.5515730e-002 -3.6115383e-002
 -6.9974671e-002 -4.1655222e-002
 -6.5593953e-002 -3.7756214e-002
 -5.5010514e-002 -2.6254746e-002
 -4.4213097e-002 -1.4030329e-002
 -3.8016552e-002 -7.6015194e-003
 -3.7328704e-002 -8.7539219e-003
 -3.9677111e-002 -1.4024073e-002
 -4.1822499e-002 -1.7858313e-002
 -4.2068543e-002 -1.6673199e-002
 -4.0599789e-002 -1.0903330e-002
