  2.5879829e-001  2.4355838e-001
  2.7678126e-001  2.5538024e-001
  2.8887567e-001  2.6244965e-001
  2.9788741e-001  2.6786248e-001
  3.0608594e-001  2.7344722e-001
  3.1265689e-001  2.7771291e-001
  3.1368550e-001  2.7635522e-001
  3.0477858e-001  2.6514166e-001
  2.8416138e-001  2.4294021e-001
  2.5393452e-001  2.1267789e-001
  2.1866806e-001  1.7951369e-001
  1.8256010e-001  1.4762607e-001
  1.4745385e-001  1.1807498e-001
  1.1309871e-001  8.9274863e-002
  7.9162621e-002  5.9566375e-002
  4.7127382e-002  2.9737020e-002
  2.0309706e-002  3.4177953e-003
  1.8898615e-003 -1.5071289e-002
 -7.5432122e-003 -2.3857361e-002
 -1.0917145e-002 -2.5289841e-002
 -1.3139176e-002 -2.4838155e-002
 -1.8080030e-002 -2.7747667e-002
 -2.6225473e-002 -3.5750166e-002
 -3.4720366e-002 -4.6160167e-002
 -3.9759161e-002 -5.3969437e-002
 -3.9504046e-002 -5.5374543e-002
 -3.5491141e-002 -5.0387647e-002
 -3.1529606e-002 -4.2759601e-002
 -3.0921959e-002 -3.7349413e-002
 -3.4131134e-002 -3.6898344e-002
 -3.8588374e-002 -4.0456007e-002
 -4.0744145e-002 -4.4467514e-002
 -3.8735356e-002 -4.5502366e-002
 -3.3757127e-002 -4.2663429e-002
 -2.9129198e-002 -3.7972316e-002
 -2.7883446e-002 -3.4723845e-002
 -3.0698600e-002 -3.5143804e-002
 -3.5624050e-002 -3.9008162e-002
 -3.9735581e-002 -4.4149412e-002
 -4.1291798e-002 -4.8190786e-002
 -4.0771126e-002 -5.0108872e-002
 -4.0035911e-002 -5.0454322e-002
 -4.0486052e-002 -5.0338499e-002
 -4.1846555e-002 -5.0277968e-002
 -4.2531454e-002 -4.9880707e-002
 -4.1302463e-002 -4.8583446e-002
 -3.8728204e-002 -4.6652619e-002
 -3.7160145e-002 -4.5466077e-002
 -3.9034174e-002 -4.6603897e-002
 -4.4784468e-002 -5.0443225e-002
 -5.2233661e-002 -5.5607423e-002
 -5.7948455e-002 -5.9766274e-002
 -5.9725540e-002 -6.1371383e-002
 -5.8198597e-002 -6.0877697e-002
 -5.6234767e-002 -6.0353522e-002
 -5.6558099e-002 -6.1718848e-002
 -5.9426217e-002 -6.4924093e-002
 -6.2345247e-002 -6.7688598e-002
 -6.2134179e-002 -6.7187652e-002
 -5.7797120e-002 -6.2534447e-002
 -5.1782707e-002 -5.6044651e-002
 -4.8440272e-002 -5.2016073e-002
 -5.0672733e-002 -5.3726181e-002
 -5.7466165e-002 -6.0900352e-002
 -6.4348764e-002 -6.9591560e-002
 -6.6705897e-002 -7.4869118e-002
 -6.3460419e-002 -7.4393905e-002
 -5.8104600e-002 -7.0181293e-002
 -5.6072371e-002 -6.7103865e-002
 -6.0206876e-002 -6.9035010e-002
 -6.7969068e-002 -7.5579006e-002
 -7.2808178e-002 -8.1955375e-002
 -6.8999509e-002 -8.2294242e-002
 -5.6403672e-002 -7.3980402e-002
 -4.1328589e-002 -5.9727935e-002
 -3.2536448e-002 -4.5819199e-002
 -3.4997800e-002 -3.7623311e-002
 -4.6012605e-002 -3.5745149e-002
 -5.6762127e-002 -3.5747530e-002
 -5.8264177e-002 -3.1667655e-002
 -4.7422435e-002 -2.0686293e-002
 -2.8727387e-002 -5.4200391e-003
 -1.0475591e-002  7.8002200e-003
  1.4114167e-003  1.3253317e-002
  7.1300213e-003  9.4383295e-003
  1.1397198e-002 -6.3804121e-004
  1.8039086e-002 -1.2416628e-002
  2.5433228e-002 -2.3337775e-002
  2.6864287e-002 -3.4033462e-002
  1.5779235e-002 -4.6395477e-002
 -8.2260114e-003 -6.0552297e-002
 -3.7831754e-002 -7.3804144e-002
 -6.2511367e-002 -8.2644279e-002
 -7.5845319e-002 -8.6138766e-002
 -7.9753922e-002 -8.7348699e-002
 -8.2014048e-002 -9.0973833e-002
 -8.8841537e-002 -9.8722397e-002
 -9.8844867e-002 -1.0667193e-001
 -1.0405806e-001 -1.0793841e-001
 -9.8034802e-002 -9.9666301e-002
 -8.4469860e-002 -8.8754974e-002
 -7.8060193e-002 -9.0119700e-002
 -9.4397279e-002 -1.1600267e-001
 -1.3462283e-001 -1.6222374e-001
 -1.7659543e-001 -2.0172757e-001
 -1.8200487e-001 -1.9319540e-001
 -1.1861936e-001 -1.0354805e-001
  1.4858938e-002  6.7412201e-002
  1.7837543e-001  2.7624593e-001
  3.0433652e-001  4.4864914e-001
  3.3067109e-001  5.1207723e-001
  2.3492816e-001  4.3179536e-001
  4.9017750e-002  2.3027697e-001
 -1.5516863e-001 -2.1579339e-002
 -3.0162429e-001 -2.3737294e-001
 -3.4708987e-001 -3.5431992e-001
 -2.9819645e-001 -3.5791073e-001
 -2.0083690e-001 -2.8054929e-001
 -1.1038835e-001 -1.7772646e-001
 -6.1943866e-002 -9.7446038e-002
 -5.7389277e-002 -6.0083031e-002
 -7.3897667e-002 -5.7356152e-002
 -8.4769855e-002 -6.6774912e-002
 -7.7316165e-002 -6.9566421e-002
 -5.7108134e-002 -6.0658596e-002
 -3.8837930e-002 -4.6784670e-002
 -3.2811641e-002 -3.7159661e-002
 -3.7616782e-002 -3.5164915e-002
 -4.3156966e-002 -3.6728528e-002
 -4.0014272e-002 -3.5063100e-002
 -2.6998579e-002 -2.6810404e-002
 -1.1247121e-002 -1.4516641e-002
 -1.6124200e-003 -3.9134973e-003
 -1.2841158e-003  1.1310911e-003
 -5.5730612e-003  1.6735416e-003
 -6.2034696e-003  2.4983492e-003
  1.8299647e-003  8.0546934e-003
  1.6517280e-002  1.9072123e-002
  3.1018743e-002  3.2488379e-002
  3.9634773e-002  4.4404897e-002
  4.2598136e-002  5.3441859e-002
  4.5830222e-002  6.1727739e-002
  5.5986930e-002  7.2824155e-002
  7.5003870e-002  8.8552450e-002
  9.8469935e-002  1.0735634e-001
  1.1919315e-001  1.2564865e-001
  1.3299552e-001  1.4088522e-001
  1.4213353e-001  1.5379028e-001
  1.5361081e-001  1.6782022e-001
  1.7372702e-001  1.8629948e-001
  2.0308790e-001  2.0946552e-001
  2.3582081e-001  2.3376342e-001
  2.6360045e-001  2.5403807e-001
  2.8138435e-001  2.6703571e-001
  2.9037320e-001  2.7338283e-001
  2.9619476e-001  2.7664920e-001
  3.0376550e-001  2.8013520e-001
  3.1287266e-001  2.8386974e-001
  3.1774521e-001  2.8406345e-001
  3.1093683e-001  2.7543584e-001
  2.8856449e-001  2.5477868e-001
  2.5317890e-001  2.2328718e-001
  2.1224821e-001  1.8602628e-001
  1.7362859e-001  1.4905718e-001
  1.4132321e-001  1.1629828e-001
  1.1436072e-001  8.8168261e-002
  8.9119871e-002  6.2662764e-002
  6.2979230e-002  3.7737969e-002
  3.6550425e-002  1.3250766e-002
  1.3114137e-002 -8.8068796e-003
 -3.9261113e-003 -2.5715470e-002
 -1.3412805e-002 -3.5848929e-002
 -1.6992287e-002 -3.9716480e-002
 -1.7657999e-002 -3.9522982e-002
 -1.7918436e-002 -3.8012618e-002
 -1.8899616e-002 -3.7343596e-002
 -2.0762072e-002 -3.8594894e-002
 -2.3633999e-002 -4.1828218e-002
 -2.7880971e-002 -4.6311057e-002
 -3.3415411e-002 -5.0668114e-002
 -3.8900649e-002 -5.3118555e-002
 -4.1880822e-002 -5.2014097e-002
 -4.0262068e-002 -4.6741055e-002
 -3.4131209e-002 -3.8501586e-002
 -2.6351130e-002 -3.0236124e-002
 -2.1092424e-002 -2.5330919e-002
 -2.1223388e-002 -2.5859559e-002
 -2.6271155e-002 -3.1272178e-002
 -3.2749518e-002 -3.8693713e-002
 -3.6621235e-002 -4.4592088e-002
 -3.6239413e-002 -4.6915117e-002
 -3.3484249e-002 -4.6236829e-002
 -3.2140416e-002 -4.5119856e-002
 -3.4722403e-002 -4.6124810e-002
 -4.0237547e-002 -4.9938667e-002
 -4.4737927e-002 -5.4952904e-002
 -4.4391305e-002 -5.8571606e-002
 -3.8714888e-002 -5.9206977e-002
 -3.1412795e-002 -5.7473169e-002
 -2.7949315e-002 -5.5711304e-002
 -3.1545567e-002 -5.6199099e-002
 -4.0574740e-002 -5.9371304e-002
 -4.9509596e-002 -6.3518887e-002
 -5.2843702e-002 -6.6127008e-002
 -4.9115993e-002 -6.5866109e-002
 -4.2009103e-002 -6.3589362e-002
 -3.7595125e-002 -6.1634731e-002
 -3.9784454e-002 -6.1938285e-002
 -4.7374187e-002 -6.4455228e-002
 -5.4976316e-002 -6.7156164e-002
 -5.7153646e-002 -6.7665909e-002
 -5.2606694e-002 -6.5334943e-002
 -4.5163993e-002 -6.1991715e-002
 -4.0803782e-002 -6.0700908e-002
 -4.2969517e-002 -6.3350845e-002
 -4.9929246e-002 -6.9003696e-002
 -5.6195206e-002 -7.4278437e-002
 -5.6964341e-002 -7.5692662e-002
 -5.2055369e-002 -7.2279109e-002
 -4.6172068e-002 -6.6551137e-002
 -4.5119180e-002 -6.2916354e-002
 -5.0887871e-002 -6.4584004e-002
 -5.9597492e-002 -7.1173656e-002
 -6.4060357e-002 -7.8738038e-002
 -5.9270779e-002 -8.2269339e-002
 -4.6454194e-002 -7.8787995e-002
 -3.2577591e-002 -6.8979445e-002
 -2.5411171e-002 -5.6346698e-002
 -2.7814902e-002 -4.4648992e-002
 -3.5598165e-002 -3.5605137e-002
 -4.0603601e-002 -2.8452297e-002
 -3.6702325e-002 -2.1454158e-002
 -2.4024018e-002 -1.3873617e-002
 -8.2285154e-003 -6.7702326e-003
  4.3425853e-003 -2.1966777e-003
  1.1587948e-002 -1.6710894e-003
  1.6573853e-002 -5.2699018e-003
  2.3666211e-002 -1.2061514e-002
  3.3214014e-002 -2.1232424e-002
  3.9498556e-002 -3.2733052e-002
  3.4294448e-002 -4.6562401e-002
  1.3512590e-002 -6.1491628e-002
 -1.8422050e-002 -7.4737838e-002
 -5.0365980e-002 -8.3408826e-002
 -7.1671569e-002 -8.6905953e-002
 -7.9381363e-002 -8.8038883e-002
 -7.9643185e-002 -9.1306622e-002
 -8.1882270e-002 -9.9026252e-002
 -9.0368168e-002 -1.0840856e-001
 -1.0028646e-001 -1.1269713e-001
 -1.0241035e-001 -1.0683422e-001
 -9.3061032e-002 -9.3866123e-002
 -8.0902683e-002 -8.6366082e-002
 -8.3107080e-002 -9.9363920e-002
 -1.1137555e-001 -1.3743022e-001
 -1.5718161e-001 -1.8424374e-001
 -1.8877757e-001 -2.0381457e-001
 -1.6598462e-001 -1.5660699e-001
 -6.6563784e-002 -2.4015189e-002
  9.2283501e-002  1.7273742e-001
  2.5331978e-001  3.7292835e-001
  3.4392416e-001  4.9941261e-001
  3.1399672e-001  4.9455195e-001
  1.6524784e-001  3.5011067e-001
 -4.6371169e-002  1.1414661e-001
 -2.3795300e-001 -1.3012964e-001
 -3.4138205e-001 -3.0270163e-001
 -3.3561204e-001 -3.6195137e-001
 -2.5143059e-001 -3.1821891e-001
 -1.4806871e-001 -2.2049938e-001
 -7.7757674e-002 -1.2616112e-001
 -5.9869780e-002 -7.1915510e-002
 -7.8354951e-002 -6.1441512e-002
 -1.0027191e-001 -7.3421075e-002
 -1.0054719e-001 -8.1417126e-002
 -7.6426912e-002 -7.1555027e-002
 -4.4186352e-002 -4.7798563e-002
 -2.3582828e-002 -2.4334873e-002
 -2.2860264e-002 -1.2923576e-002
 -3.4688150e-002 -1.4809686e-002
 -4.4076325e-002 -2.1849091e-002
 -4.0675317e-002 -2.4258063e-002
 -2.5702695e-002 -1.8115802e-002
 -9.1412397e-003 -7.0986133e-003
 -5.8115924e-004  1.9806324e-003
 -1.6115050e-003  5.4546769e-003
 -5.5248451e-003  5.6847941e-003
 -3.7206771e-003  8.6173112e-003
  6.9772323e-003  1.8477679e-002
  2.2149134e-002  3.4162247e-002
  3.4195035e-002  5.0220060e-002
  3.9252987e-002  6.1361701e-002
  4.0782067e-002  6.6809377e-002
  4.6856941e-002  7.0996393e-002
  6.3450562e-002  8.0128106e-002
  8.9289110e-002  9.7401962e-002
  1.1656373e-001  1.2065170e-001
  1.3695253e-001  1.4413341e-001
  1.4815265e-001  1.6290724e-001
  1.5569973e-001  1.7630227e-001
  1.6855206e-001  1.8786966e-001
  1.9193095e-001  2.0207875e-001
  2.2302048e-001  2.2048352e-001
  2.5286810e-001  2.4037547e-001
  2.7306229e-001  2.5687252e-001
  2.8198645e-001  2.6675014e-001
  2.8571892e-001  2.7082547e-001
  2.9285741e-001  2.7298711e-001
  3.0720634e-001  2.7668241e-001
  3.2388213e-001  2.8155115e-001
  3.3184111e-001  2.8284719e-001
  3.2101039e-001  2.7411438e-001
  2.8896331e-001  2.5132841e-001
  2.4242152e-001  2.1556104e-001
  1.9290912e-001  1.7253275e-001
  1.4985034e-001  1.2946414e-001
  1.1615312e-001  9.1673332e-002
  8.8843811e-002  6.0943278e-002
  6.3520322e-002  3.6356117e-002
  3.8642579e-002  1.6294893e-002
  1.6528719e-002 -6.7621998e-006
  6.6436292e-004 -1.2436152e-002
 -7.8742159e-003 -2.0986186e-002
 -1.1752349e-002 -2.6578527e-002
 -1.5369271e-002 -3.0823136e-002
 -2.1347132e-002 -3.4968568e-002
 -2.8556227e-002 -3.9039052e-002
 -3.3427658e-002 -4.2092434e-002
 -3.3370772e-002 -4.3308849e-002
 -2.9318330e-002 -4.2895899e-002
 -2.5301910e-002 -4.2021448e-002
 -2.5233119e-002 -4.1693529e-002
 -2.9691148e-002 -4.1723264e-002
 -3.5355621e-002 -4.0744116e-002
 -3.7787727e-002 -3.7552640e-002
 -3.5270228e-002 -3.2683759e-002
 -3.0498579e-002 -2.8757063e-002
 -2.8540648e-002 -2.8910402e-002
 -3.2551095e-002 -3.4335347e-002
 -4.0779863e-002 -4.2853807e-002
 -4.7421012e-002 -4.9880257e-002
 -4.6920514e-002 -5.1359251e-002
 -3.8530798e-002 -4.6740737e-002
 -2.7420673e-002 -3.9688207e-002
 -2.1235146e-002 -3.5795831e-002
 -2.4464095e-002 -3.8673574e-002
 -3.5024778e-002 -4.7327000e-002
 -4.5648399e-002 -5.6700591e-002
 -4.9234753e-002 -6.1194134e-002
 -4.4074589e-002 -5.8574670e-002
 -3.5022173e-002 -5.1534734e-002
 -2.9659313e-002 -4.5696434e-002
 -3.2398152e-002 -4.5549782e-002
 -4.1071922e-002 -5.1240265e-002
 -4.8684816e-002 -5.8590577e-002
 -4.8994262e-002 -6.2325829e-002
 -4.1488340e-002 -5.9991840e-002
 -3.1938649e-002 -5.3719039e-002
 -2.8007427e-002 -4.8567523e-002
 -3.3360051e-002 -4.8793383e-002
 -4.4776896e-002 -5.4770320e-002
 -5.4582959e-002 -6.2834694e-002
 -5.6450962e-002 -6.8012192e-002
 -5.0111028e-002 -6.7557557e-002
 -4.1298163e-002 -6.2637319e-002
 -3.7098322e-002 -5.7105734e-002
 -4.0454167e-002 -5.4528363e-002
 -4.8170696e-002 -5.5862109e-002
 -5.3896938e-002 -5.9381110e-002
 -5.3494338e-002 -6.2542297e-002
 -4.8408615e-002 -6.4115895e-002
 -4.4284419e-002 -6.4821201e-002
 -4.5940123e-002 -6.6066667e-002
 -5.2943324e-002 -6.8102990e-002
 -5.9622471e-002 -6.9384289e-002
 -5.9634363e-002 -6.7718025e-002
 -5.1414539e-002 -6.2184448e-002
 -3.9922044e-002 -5.4020769e-002
 -3.2999755e-002 -4.5655030e-002
 -3.5026308e-002 -3.8602373e-002
 -4.2961819e-002 -3.2114886e-002
 -4.8184490e-002 -2.3886646e-002
 -4.2905770e-002 -1.2380540e-002
 -2.6276428e-002  1.0702306e-003
 -5.1860601e-003  1.2416713e-002
  1.0924611e-002  1.7405627e-002
  1.7127817e-002  1.4530080e-002
  1.6293718e-002  6.0758673e-003
  1.5775318e-002 -3.7630227e-003
  2.0268467e-002 -1.2131843e-002
  2.6778364e-002 -1.9535768e-002
  2.6311067e-002 -2.8751352e-002
  1.1298247e-002 -4.1565573e-002
 -1.7182899e-002 -5.6198519e-002
 -4.8660654e-002 -6.8025960e-002
 -7.0248204e-002 -7.3369195e-002
 -7.6194311e-002 -7.3209842e-002
 -7.2250792e-002 -7.3220954e-002
 -7.0830835e-002 -7.9308395e-002
 -8.0361893e-002 -9.1890854e-002
 -9.7622067e-002 -1.0408694e-001
 -1.1001629e-001 -1.0650737e-001
 -1.0706477e-001 -9.6120931e-002
 -9.1940735e-002 -8.2057880e-002
 -8.2391453e-002 -8.1950780e-002
 -9.7606934e-002 -1.0863126e-001
 -1.3923562e-001 -1.5522032e-001
 -1.8138885e-001 -1.9029438e-001
 -1.8053962e-001 -1.7011572e-001
 -1.0268938e-001 -6.4132659e-002
  4.8463515e-002  1.2040192e-001
  2.2252879e-001  3.3123652e-001
  3.4238838e-001  4.8944247e-001
  3.4424937e-001  5.2591377e-001
  2.1461823e-001  4.1669481e-001
  1.0827099e-003  1.9711944e-001
 -2.1084567e-001 -5.3915461e-002
 -3.4182559e-001 -2.5136380e-001
 -3.5770719e-001 -3.4238689e-001
 -2.8114712e-001 -3.2530908e-001
 -1.7116382e-001 -2.4106774e-001
 -8.5857847e-002 -1.4518930e-001
 -5.2192543e-002 -7.8327074e-002
 -5.9575653e-002 -5.1488523e-002
 -7.7059872e-002 -5.0963827e-002
 -7.9007523e-002 -5.5388876e-002
 -6.1024821e-002 -5.1715607e-002
 -3.7420347e-002 -4.0445017e-002
 -2.5548525e-002 -2.9700633e-002
 -3.0863524e-002 -2.5443487e-002
 -4.3745797e-002 -2.6145341e-002
 -4.8894917e-002 -2.5235737e-002
 -3.8333859e-002 -1.7837654e-002
 -1.7282422e-002 -5.3559121e-003
  1.0873854e-003  5.8585880e-003
  6.9323921e-003  1.0269481e-002
  1.5560996e-003  8.2066763e-003
 -4.2558512e-003  5.9262432e-003
  4.0472582e-004  1.0566306e-002
  1.7548750e-002  2.4284193e-002
  3.8920754e-002  4.2410270e-002
  5.3088051e-002  5.7110944e-002
  5.4978099e-002  6.3572932e-002
  5.0107677e-002  6.3804946e-002
  5.0183050e-002  6.5058060e-002
  6.3804185e-002  7.4267789e-002
  8.9759630e-002  9.2876759e-002
  1.1819672e-001  1.1604259e-001
  1.3862213e-001  1.3672730e-001
  1.4826266e-001  1.5129859e-001
  1.5412327e-001  1.6216332e-001
  1.6727232e-001  1.7544317e-001
  1.9398065e-001  1.9570051e-001
  2.3062080e-001  2.2188446e-001
  2.6623282e-001  2.4771833e-001
  2.9049633e-001  2.6610732e-001
  3.0092737e-001  2.7420596e-001
  3.0377973e-001  2.7515873e-001
  3.0831660e-001  2.7531151e-001
  3.1905276e-001  2.7898549e-001
  3.3195092e-001  2.8482935e-001
  3.3722468e-001  2.8640966e-001
  3.2623077e-001  2.7649196e-001
  2.9713875e-001  2.5183445e-001
  2.5550306e-001  2.1525233e-001
  2.0994759e-001  1.7374376e-001
  1.6688185e-001  1.3441049e-001
  1.2817916e-001  1.0106022e-001
  9.2923941e-002  7.3557524e-002
  6.0829956e-002  4.9733298e-002
  3.3903303e-002  2.7918504e-002
  1.4895490e-002  8.1583883e-003
  4.2584198e-003 -8.3888599e-003
 -1.2144110e-003 -2.0820666e-002
 -6.5582581e-003 -2.9360459e-002
 -1.4910662e-002 -3.5075583e-002
 -2.5117348e-002 -3.8981287e-002
 -3.2898130e-002 -4.1460992e-002
 -3.4816127e-002 -4.2539804e-002
 -3.1780922e-002 -4.2581823e-002
 -2.8904622e-002 -4.2518686e-002
 -3.1649210e-002 -4.3305252e-002
 -4.1221192e-002 -4.5040107e-002
 -5.3112785e-002 -4.6734572e-002
 -6.0119016e-002 -4.6959036e-002
 -5.7780702e-002 -4.5056388e-002
 -4.7912091e-002 -4.1778733e-002
 -3.7438563e-002 -3.8852513e-002
 -3.3290039e-002 -3.7696516e-002
 -3.7367657e-002 -3.8436646e-002
 -4.5403363e-002 -3.9973333e-002
 -5.0607765e-002 -4.1115141e-002
 -4.9039277e-002 -4.1645590e-002
 -4.2460288e-002 -4.2348518e-002
 -3.6558071e-002 -4.4023412e-002
 -3.6139261e-002 -4.6435506e-002
 -4.1272093e-002 -4.8296262e-002
 -4.7535047e-002 -4.8480486e-002
 -4.9973461e-002 -4.7411577e-002
 -4.7363377e-002 -4.7229808e-002
 -4.3148366e-002 -5.0193236e-002
 -4.2261059e-002 -5.6421707e-002
 -4.6622977e-002 -6.2998180e-002
 -5.3237077e-002 -6.5635092e-002
 -5.6561098e-002 -6.1957250e-002
 -5.3313193e-002 -5.3965009e-002
 -4.5568739e-002 -4.7410780e-002
 -3.9464196e-002 -4.8116310e-002
 -4.0224086e-002 -5.7518038e-002
 -4.7700578e-002 -7.0984695e-002
 -5.6184981e-002 -8.0510616e-002
 -5.8943450e-002 -8.0230968e-002
 -5.3873067e-002 -7.0796987e-002
 -4.5604097e-002 -5.9253217e-002
 -4.2066519e-002 -5.4210038e-002
 -4.8024639e-002 -5.9653401e-002
 -6.0736611e-002 -7.1935216e-002
 -7.1452658e-002 -8.2248274e-002
 -7.1946086e-002 -8.2961579e-002
 -6.1077512e-002 -7.3226978e-002
 -4.6089637e-002 -5.9639009e-002
 -3.7436956e-002 -5.1473278e-002
 -4.0920730e-002 -5.4007225e-002
 -5.3233915e-002 -6.4855244e-002
 -6.4436563e-002 -7.5917068e-002
 -6.5487484e-002 -7.9291977e-002
 -5.5134824e-002 -7.2733245e-002
 -4.0701382e-002 -6.0535580e-002
 -3.2271743e-002 -4.9524928e-002
 -3.4781299e-002 -4.3436367e-002
 -4.4254615e-002 -4.0208175e-002
 -5.1046945e-002 -3.4251027e-002
 -4.7376882e-002 -2.1683580e-002
 -3.3097807e-002 -4.2209080e-003
 -1.5278559e-002  1.1383074e-002
 -2.1673787e-003  1.7927786e-002
  3.3136598e-003  1.2798189e-002
  5.0462388e-003 -5.3766798e-004
  9.0893186e-003 -1.5485462e-002
  1.6952610e-002 -2.7303672e-002
  2.2885248e-002 -3.5915132e-002
  1.7902497e-002 -4.4547947e-002
 -2.4941234e-003 -5.5735582e-002
 -3.3288327e-002 -6.8407386e-002
 -6.2309248e-002 -7.8775472e-002
 -7.8673522e-002 -8.4156815e-002
 -8.0712195e-002 -8.6117716e-002
 -7.6801905e-002 -8.9598776e-002
 -7.7962162e-002 -9.8174490e-002
 -8.8161214e-002 -1.0960156e-001
 -1.0061545e-001 -1.1632145e-001
 -1.0403894e-001 -1.1197222e-001
 -9.4259087e-002 -9.9196531e-002
 -8.1222814e-002 -9.1495093e-002
 -8.3706246e-002 -1.0505823e-001
 -1.1335342e-001 -1.4403346e-001
 -1.5932327e-001 -1.8934666e-001
 -1.8697233e-001 -2.0141577e-001
 -1.5561996e-001 -1.3938948e-001
 -4.6707422e-002  1.2002352e-002
  1.1594123e-001  2.2422251e-001
  2.6956825e-001  4.2897286e-001
  3.4133392e-001  5.4586257e-001
  2.8763486e-001  5.2078652e-001
  1.2045032e-001  3.5424065e-001
 -9.5975913e-002  1.0325557e-001
 -2.7729976e-001 -1.4484192e-001
 -3.6148550e-001 -3.1251781e-001
 -3.3711027e-001 -3.6471051e-001
 -2.4238479e-001 -3.1761395e-001
 -1.3799828e-001 -2.2180881e-001
 -7.1988916e-002 -1.3171248e-001
 -5.7745674e-002 -7.9520162e-002
 -7.5840567e-002 -6.6576009e-002
 -9.4501051e-002 -7.3180967e-002
 -9.2717163e-002 -7.7018384e-002
 -7.1094703e-002 -6.7600252e-002
 -4.5899234e-002 -4.9011314e-002
 -3.3650086e-002 -3.2350162e-002
 -3.8596120e-002 -2.5376175e-002
 -5.1390639e-002 -2.7115826e-002
 -5.8029462e-002 -3.0101109e-002
 -5.0994466e-002 -2.7119148e-002
 -3.4035096e-002 -1.6681731e-002
 -1.7885638e-002 -3.3177050e-003
 -1.1261886e-002  6.7746104e-003
 -1.4462982e-002  1.0799665e-002
 -2.0060041e-002  1.1262062e-002
 -1.9324160e-002  1.3634274e-002
 -8.9400050e-003  2.1984595e-002
  7.1095600e-003  3.6029298e-002
  2.1350546e-002  5.1621535e-002
  2.8892921e-002  6.4038513e-002
  3.0991809e-002  7.1484947e-002
  3.3681984e-002  7.6298634e-002
  4.3007281e-002  8.3198718e-002
  6.0770884e-002  9.6088983e-002
  8.3893440e-002  1.1575718e-001
  1.0722011e-001  1.3967714e-001
  1.2727378e-001  1.6380370e-001
  1.4407411e-001  1.8490384e-001
  1.6009263e-001  2.0196814e-001
  1.7770869e-001  2.1608302e-001
  1.9746450e-001  2.2924340e-001
  2.1822031e-001  2.4297141e-001
  2.3859196e-001  2.5757252e-001
  2.5784353e-001  2.7201001e-001
  2.7541887e-001  2.8428183e-001
  2.8968025e-001  2.9200918e-001
  2.9742714e-001  2.9310290e-001
  2.9506837e-001  2.8633717e-001
  2.8080302e-001  2.7166000e-001
  2.5607937e-001  2.5010168e-001
  2.2494559e-001  2.2325566e-001
  1.9161228e-001  1.9263644e-001
  1.5812444e-001  1.5936272e-001
  1.2399825e-001  1.2441418e-001
  8.8175611e-002  8.9259677e-002
  5.1530180e-002  5.6175819e-002
  1.7761276e-002  2.7781980e-002
 -8.3716282e-003  5.9372374e-003
 -2.4250183e-002 -9.2966439e-003
 -3.1515656e-002 -1.9795940e-002
 -3.5260910e-002 -2.8353810e-002
 -4.0700653e-002 -3.7062522e-002
 -4.9689376e-002 -4.6113704e-002
 -5.9834044e-002 -5.3989455e-002
 -6.6847949e-002 -5.8852061e-002
 -6.8241979e-002 -6.0050649e-002
 -6.5458661e-002 -5.8637163e-002
 -6.2824916e-002 -5.6566415e-002
 -6.4082818e-002 -5.5201422e-002
 -6.9383379e-002 -5.4385898e-002
 -7.5199499e-002 -5.2856963e-002
 -7.7231245e-002 -4.9633737e-002
 -7.4033425e-002 -4.5281906e-002
 -6.8319742e-002 -4.1811637e-002
 -6.4827166e-002 -4.1170307e-002
 -6.6437559e-002 -4.3530854e-002
 -7.1723655e-002 -4.6822366e-002
 -7.6026754e-002 -4.8110013e-002
 -7.5250993e-002 -4.5868614e-002
 -6.9441998e-002 -4.1472914e-002
 -6.3100030e-002 -3.8568187e-002
 -6.1756817e-002 -4.0526724e-002
 -6.7422594e-002 -4.7765943e-002
 -7.6596555e-002 -5.7033503e-002
 -8.2590182e-002 -6.3383831e-002
 -8.0573376e-002 -6.3536142e-002
 -7.1422814e-002 -5.8202545e-002
 -6.1365636e-002 -5.1688348e-002
 -5.7437841e-002 -4.8891165e-002
 -6.2237122e-002 -5.1890410e-002
 -7.1980425e-002 -5.8597656e-002
 -7.9452892e-002 -6.4459708e-002
 -7.9628932e-002 -6.6006081e-002
 -7.3514426e-002 -6.3452738e-002
 -6.7225332e-002 -6.0441707e-002
 -6.6945743e-002 -6.1070620e-002
 -7.3888303e-002 -6.6591305e-002
 -8.3190172e-002 -7.4264030e-002
 -8.7828914e-002 -7.9367715e-002
 -8.4446903e-002 -7.8855942e-002
 -7.6328893e-002 -7.3798792e-002
 -7.1009636e-002 -6.8645059e-002
 -7.4124302e-002 -6.7762334e-002
 -8.4498292e-002 -7.1965068e-002
 -9.4498789e-002 -7.7706917e-002
 -9.5765103e-002 -7.9744152e-002
 -8.5969260e-002 -7.5254788e-002
 -7.1262635e-002 -6.6322321e-002
 -6.2122236e-002 -5.8733029e-002
 -6.5466657e-002 -5.7851555e-002
 -7.9030083e-002 -6.4574996e-002
 -9.2534057e-002 -7.4415739e-002
 -9.5094092e-002 -8.0464529e-002
 -8.3399422e-002 -7.8028338e-002
 -6.4425474e-002 -6.7586401e-002
 -5.0488730e-002 -5.3994026e-002
 -5.0173608e-002 -4.2700606e-002
 -6.1960269e-002 -3.5917865e-002
 -7.5320411e-002 -3.1575962e-002
 -7.8456353e-002 -2.5678597e-002
 -6.6767296e-002 -1.5994446e-002
 -4.5646171e-002 -4.1162528e-003
 -2.5709583e-002  5.6095604e-003
 -1.4479516e-002  9.2037953e-003
 -1.1253576e-002  5.5806878e-003
 -9.0997467e-003 -3.4017565e-003
 -2.1903059e-003 -1.5075261e-002
  7.9061667e-003 -2.8131209e-002
  1.2461611e-002 -4.2786422e-002
  2.6209598e-003 -5.8845258e-002
 -2.2479625e-002 -7.3870939e-002
 -5.3438740e-002 -8.3775173e-002
 -7.6692873e-002 -8.6047136e-002
 -8.4507306e-002 -8.2905831e-002
 -8.0878313e-002 -8.1112673e-002
 -7.8099892e-002 -8.7442094e-002
 -8.6234686e-002 -1.0270299e-001
 -1.0390605e-001 -1.1941121e-001
 -1.1854022e-001 -1.2630977e-001
 -1.1704625e-001 -1.1778937e-001
 -9.8834777e-002 -1.0118940e-001
 -7.9890960e-002 -9.4816909e-002
 -8.2304404e-002 -1.1523828e-001
 -1.1503415e-001 -1.6091111e-001
 -1.6009339e-001 -2.0407261e-001
 -1.7692956e-001 -1.9977384e-001
 -1.2598610e-001 -1.1052066e-001
  1.9399765e-003  6.6453532e-002
  1.7036174e-001  2.8664583e-001
  3.0900292e-001  4.7142452e-001
  3.4890362e-001  5.4288259e-001
  2.6111976e-001  4.6268563e-001
  7.5282078e-002  2.5326999e-001
 -1.3406536e-001 -1.1235686e-002
 -2.8590776e-001 -2.3985996e-001
 -3.3329372e-001 -3.6627692e-001
 -2.8274707e-001 -3.7492369e-001
 -1.8291332e-001 -2.9930861e-001
 -9.2140231e-002 -1.9673772e-001
 -4.6267278e-002 -1.1626262e-001
 -4.5208714e-002 -7.8010574e-002
 -6.3188252e-002 -7.2864578e-002
 -7.1953390e-002 -7.8028429e-002
 -5.9828090e-002 -7.5571870e-002
 -3.5176266e-002 -6.2064631e-002
 -1.5098521e-002 -4.5576215e-002
 -1.0236857e-002 -3.5486409e-002
 -1.7439444e-002 -3.4192172e-002
 -2.4319819e-002 -3.6457233e-002
 -2.0407685e-002 -3.5126476e-002
 -5.2747989e-003 -2.7478159e-002
  1.2320348e-002 -1.6898157e-002
  2.2621212e-002 -9.0512493e-003
  2.3132437e-002 -6.3584751e-003
  2.0207096e-002 -5.7341785e-003
  2.3126934e-002 -1.3817032e-003
  3.5991372e-002  9.9224405e-003
  5.4280442e-002  2.5746752e-002
  6.8756544e-002  3.9783465e-002
  7.3326099e-002  4.7093762e-002
  7.0379000e-002  4.8513617e-002
  6.9284761e-002  5.0536950e-002
  7.9266024e-002  6.0634211e-002
  1.0231012e-001  8.1537425e-002
  1.3170230e-001  1.0894361e-001
  1.5721244e-001  1.3448151e-001
  1.7282956e-001  1.5171271e-001
  1.8105414e-001  1.6066892e-001
  1.9053450e-001  1.6752612e-001
  2.0917124e-001  1.7985501e-001
  2.3809824e-001  2.0108608e-001
  2.7090675e-001  2.2812220e-001
  2.9852421e-001  2.5373412e-001
  3.1562126e-001  2.7155792e-001
  3.2370298e-001  2.7998307e-001
  3.2875396e-001  2.8216088e-001
  3.3567882e-001  2.8251767e-001
  3.4406972e-001  2.8280777e-001
  3.4846170e-001  2.8070079e-001
  3.4249135e-001  2.7170228e-001
  3.2352731e-001  2.5266409e-001
  2.9419181e-001  2.2408813e-001
  2.5997163e-001  1.8963369e-001
  2.2528062e-001  1.5360446e-001
  1.9124726e-001  1.1858783e-001
  1.5688385e-001  8.5123208e-002
  1.2220070e-001  5.3294382e-002
  9.0258013e-002  2.4475281e-002
  6.6074711e-002  1.4077561e-003
  5.3164828e-002 -1.3625335e-002
  5.0512249e-002 -2.0962769e-002
  5.2537827e-002 -2.4157453e-002
  5.2412810e-002 -2.8104733e-002
  4.6317316e-002 -3.5930941e-002
  3.5538295e-002 -4.6906003e-002
  2.4992807e-002 -5.7004718e-002
  1.9426163e-002 -6.1810897e-002
  2.0152046e-002 -5.9674007e-002
  2.4658579e-002 -5.2823420e-002
  2.8900516e-002 -4.5782764e-002
  3.0232894e-002 -4.2385132e-002
  2.8784034e-002 -4.3478107e-002
  2.6476081e-002 -4.6910424e-002
  2.4968526e-002 -4.9524128e-002
  2.4403970e-002 -4.9509295e-002
  2.3863531e-002 -4.7433539e-002
  2.2841453e-002 -4.5331249e-002
  2.2061541e-002 -4.4949360e-002
  2.2831588e-002 -4.6530873e-002
  2.5543336e-002 -4.8973455e-002
  2.8864838e-002 -5.0940797e-002
  3.0560510e-002 -5.1916220e-002
  2.9413730e-002 -5.2333062e-002
  2.6535526e-002 -5.2866639e-002
  2.4792354e-002 -5.3656986e-002
  2.6504250e-002 -5.4294826e-002
  3.1293090e-002 -5.4542967e-002
  3.6032528e-002 -5.4941643e-002
  3.7110010e-002 -5.6660913e-002
  3.3301021e-002 -6.0575280e-002
  2.6896455e-002 -6.6302428e-002
  2.2098417e-002 -7.2030329e-002
  2.1787088e-002 -7.5447431e-002
  2.5300773e-002 -7.5164098e-002
  2.9054708e-002 -7.1591868e-002
  2.9563932e-002 -6.6693533e-002
  2.6400231e-002 -6.2788058e-002
  2.2549450e-002 -6.1386267e-002
  2.1794216e-002 -6.2764189e-002
  2.5289898e-002 -6.6268506e-002
  3.0238259e-002 -7.0869318e-002
  3.2023575e-002 -7.5366980e-002
  2.8094790e-002 -7.8408173e-002
  2.0498158e-002 -7.8636415e-002
  1.4681943e-002 -7.5382255e-002
  1.5232198e-002 -6.9626026e-002
  2.1912253e-002 -6.4262920e-002
  2.9386331e-002 -6.2891191e-002
  3.1131183e-002 -6.7539173e-002
  2.4662134e-002 -7.6788262e-002
  1.3895699e-002 -8.5925117e-002
  6.4888247e-003 -8.9528066e-002
  8.0656125e-003 -8.4983298e-002
  1.7661511e-002 -7.4594767e-002
  2.8097466e-002 -6.4597690e-002
  3.1326485e-002 -6.1283506e-002
  2.4620280e-002 -6.6862960e-002
  1.2867204e-002 -7.7837887e-002
  4.9647467e-003 -8.7170601e-002
  7.0876551e-003 -8.8706702e-002
  1.7985775e-002 -8.0840404e-002
  2.9972486e-002 -6.6979720e-002
  3.4881346e-002 -5.2731686e-002
  3.0380394e-002 -4.2008176e-002
  2.1708973e-002 -3.4960648e-002
  1.7597780e-002 -2.8967233e-002
  2.3642830e-002 -2.1600740e-002
  3.8488375e-002 -1.2876345e-002
  5.5597880e-002 -5.1344473e-003
  6.8881001e-002 -9.0509052e-004
  7.7170843e-002 -9.2644477e-004
  8.3775333e-002 -4.0673922e-003
  9.1590556e-002 -9.1258156e-003
  9.8334720e-002 -1.6606250e-002
  9.6703450e-002 -2.8416117e-002
  8.0082259e-002 -4.5392808e-002
  4.9357697e-002 -6.4864742e-002
  1.4736542e-002 -8.0924848e-002
 -1.0001701e-002 -8.8107812e-002
 -1.7133272e-002 -8.5936630e-002
 -1.0930248e-002 -8.0326595e-002
 -4.6576852e-003 -7.9868343e-002
 -1.0075367e-002 -8.9053197e-002
 -2.7493343e-002 -1.0375889e-001
 -4.4834822e-002 -1.1349104e-001
 -4.7643906e-002 -1.1001243e-001
 -3.2770666e-002 -9.6167813e-002
 -1.4279210e-002 -8.6948626e-002
 -1.4691558e-002 -9.9375903e-002
 -4.6015200e-002 -1.3642638e-001
 -9.4126389e-002 -1.7644307e-001
 -1.2024333e-001 -1.7818093e-001
 -8.2534128e-002 -1.0257856e-001
  3.3861786e-002  5.9612593e-002
  1.9845298e-001  2.7187143e-001
  3.4350712e-001  4.6051390e-001
  3.9721184e-001  5.4667226e-001
  3.2346977e-001  4.8566438e-001
  1.4434346e-001  2.9178374e-001
 -6.9408216e-002  3.3627454e-002
 -2.3467051e-001 -1.9814473e-001
 -2.9795818e-001 -3.3303508e-001
 -2.5867184e-001 -3.4989758e-001
 -1.6169695e-001 -2.7860779e-001
 -6.6560377e-002 -1.7627322e-001
 -1.3717328e-002 -9.4198756e-002
 -7.9155090e-003 -5.4920980e-002
 -2.5582091e-002 -5.0093801e-002
 -3.7375674e-002 -5.5979849e-002
 -2.8922339e-002 -5.3469213e-002
 -6.7116451e-003 -3.9214686e-002
  1.1786137e-002 -2.2883061e-002
  1.3984248e-002 -1.5623354e-002
  1.5673828e-003 -1.9961874e-002
 -1.2286757e-002 -2.8290092e-002
 -1.4126591e-002 -2.9781389e-002
 -3.1143802e-004 -1.9192780e-002
  2.1328887e-002 -5.5056774e-004
  3.8477122e-002  1.6603545e-002
  4.3754375e-002  2.4916310e-002
  3.9320503e-002  2.4578531e-002
  3.3893112e-002  2.2486092e-002
  3.5375267e-002  2.6424389e-002
  4.5233595e-002  3.9068610e-002
  5.8551049e-002  5.6320129e-002
  6.8954389e-002  7.0996312e-002
  7.3946577e-002  7.8570840e-002
  7.6397389e-002  8.0511838e-002
  8.1620977e-002  8.2986220e-002
  9.2861097e-002  9.2190815e-002
  1.0915609e-001  1.1012070e-001
  1.2698102e-001  1.3376690e-001
  1.4380851e-001  1.5790043e-001
  1.6034586e-001  1.7892529e-001
  1.7942454e-001  1.9669934e-001
  2.0284753e-001  2.1345161e-001
  2.2899091e-001  2.3101274e-001
  2.5344382e-001  2.4893230e-001
  2.7227724e-001  2.6493491e-001
  2.8521873e-001  2.7712784e-001
  2.9590747e-001  2.8579792e-001
  3.0878723e-001  2.9310568e-001
  3.2488294e-001  3.0077334e-001
  3.3988418e-001  3.0779066e-001
  3.4605638e-001  3.1001371e-001
  3.3684148e-001  3.0231129e-001
  3.1088601e-001  2.8178380e-001
  2.7279708e-001  2.4983741e-001
  2.3029218e-001  2.1163849e-001
  1.8990087e-001  1.7334629e-001
  1.5422808e-001  1.3907394e-001
  1.2227595e-001  1.0956164e-001
  9.2068556e-002  8.3223599e-002
  6.3190578e-002  5.8447966e-002
  3.7351754e-002  3.5297755e-002
  1.6889078e-002  1.5502958e-002
  2.7348625e-003  1.0093375e-003
 -6.4710205e-003 -7.7249275e-003
 -1.3401970e-002 -1.2265325e-002
 -2.0133048e-002 -1.5271278e-002
 -2.6773577e-002 -1.8792177e-002
 -3.1738003e-002 -2.3122285e-002
 -3.3312246e-002 -2.6936247e-002
 -3.1272736e-002 -2.8512750e-002
 -2.7378266e-002 -2.7081607e-002
 -2.4472382e-002 -2.3418603e-002
 -2.4911472e-002 -1.9387234e-002
 -2.9306924e-002 -1.6792499e-002
 -3.6248618e-002 -1.6312874e-002
 -4.3119535e-002 -1.7241554e-002
 -4.7409245e-002 -1.8093889e-002
 -4.7846585e-002 -1.7604837e-002
 -4.4885527e-002 -1.5491648e-002
 -4.0478148e-002 -1.2604632e-002
 -3.7139208e-002 -1.0397791e-002
 -3.6756935e-002 -1.0090316e-002
 -3.9622295e-002 -1.1953727e-002
 -4.4292347e-002 -1.5202964e-002
 -4.8420337e-002 -1.8479876e-002
 -5.0176373e-002 -2.0636677e-002
 -4.9347622e-002 -2.1291993e-002
 -4.7425636e-002 -2.0907582e-002
 -4.6531303e-002 -2.0388785e-002
 -4.7874062e-002 -2.0455470e-002
 -5.0985464e-002 -2.1311539e-002
 -5.4247862e-002 -2.2782070e-002
 -5.6335674e-002 -2.4713080e-002
 -5.7349102e-002 -2.7180566e-002
 -5.8610840e-002 -3.0215664e-002
 -6.1269851e-002 -3.3352552e-002
 -6.4911465e-002 -3.5468448e-002
 -6.7480112e-002 -3.5289226e-002
 -6.6855408e-002 -3.2400088e-002
 -6.2955034e-002 -2.8059811e-002
 -5.8526628e-002 -2.4980115e-002
 -5.7611975e-002 -2.5851882e-002
 -6.2561319e-002 -3.1420198e-002
 -7.1883956e-002 -3.9569775e-002
 -8.0789186e-002 -4.6258848e-002
 -8.4328257e-002 -4.7908735e-002
 -8.1003488e-002 -4.3771317e-002
 -7.4035040e-002 -3.6556262e-002
 -6.9175686e-002 -3.0766603e-002
 -7.0472718e-002 -2.9715628e-002
 -7.7204415e-002 -3.3337108e-002
 -8.4348578e-002 -3.8340774e-002
 -8.6370996e-002 -4.0657296e-002
 -8.1464330e-002 -3.8357450e-002
 -7.2967008e-002 -3.2942253e-002
 -6.6847105e-002 -2.8086986e-002
 -6.7217151e-002 -2.6877552e-002
 -7.3299806e-002 -2.9583637e-002
 -8.0246198e-002 -3.3660174e-002
 -8.3132121e-002 -3.5946336e-002
 -8.0803965e-002 -3.5197221e-002
 -7.6535681e-002 -3.2974931e-002
 -7.4968515e-002 -3.2165844e-002
 -7.7974217e-002 -3.4438463e-002
 -8.2845891e-002 -3.8564220e-002
 -8.4547100e-002 -4.1113871e-002
 -8.0076339e-002 -3.8844932e-002
 -7.1367399e-002 -3.0992201e-002
 -6.4085567e-002 -1.9643936e-002
 -6.3083603e-002 -7.9757567e-003
 -6.8154091e-002  2.1333663e-003
 -7.3644413e-002  1.1098168e-002
 -7.2427599e-002  2.0548886e-002
 -6.1227905e-002  3.1158741e-002
 -4.3060601e-002  4.1340519e-002
 -2.4887308e-002  4.7894634e-002
 -1.2500997e-002  4.8068188e-002
 -6.8339676e-003  4.1367088e-002
 -4.7229751e-003  2.9659119e-002
 -3.2896715e-003  1.5668326e-002
 -3.8418033e-003  1.3214534e-003
 -1.1511080e-002 -1.2538979e-002
 -3.0487675e-002 -2.5073818e-002
 -5.8919517e-002 -3.4553153e-002
 -8.8286762e-002 -3.9068908e-002
 -1.0853978e-001 -3.8640057e-002
 -1.1540721e-001 -3.6700859e-002
 -1.1372831e-001 -3.8845256e-002
 -1.1343936e-001 -4.8597678e-002
 -1.2095132e-001 -6.3334551e-002
 -1.3313935e-001 -7.4421117e-002
 -1.3973229e-001 -7.3060050e-002
 -1.3322330e-001 -5.8593399e-002
 -1.1843227e-001 -4.2655484e-002
 -1.1234651e-001 -4.3700950e-002
 -1.3160398e-001 -7.3014096e-002
 -1.7517016e-001 -1.2060565e-001
 -2.1597464e-001 -1.5224799e-001
 -2.1138184e-001 -1.2369589e-001
 -1.2963233e-001 -7.1048621e-003
  2.3472177e-002  1.8524172e-001
  1.9682263e-001  3.9614947e-001
  3.1424962e-001  5.4446634e-001
  3.1393930e-001  5.6316266e-001
  1.8424172e-001  4.3424204e-001
 -2.6538917e-002  2.0038382e-001
 -2.3373936e-001 -5.4224565e-002
 -3.6010257e-001 -2.4382076e-001
 -3.7390968e-001 -3.1978722e-001
 -2.9953203e-001 -2.8747761e-001
 -1.9626499e-001 -1.9421417e-001
 -1.2079668e-001 -9.8261051e-002
 -9.7413133e-002 -3.8383275e-002
 -1.1257758e-001 -2.0529582e-002
 -1.3334129e-001 -2.5696203e-002
 -1.3396160e-001 -2.9864739e-002
 -1.1185172e-001 -2.1048536e-002
 -8.4163685e-002 -3.5149502e-003
 -7.0692788e-002  1.0546614e-002
 -7.7673103e-002  1.3127722e-002
 -9.4292138e-002  6.6598647e-003
 -1.0284829e-001  8.1971255e-004
 -9.3235999e-002  3.9283550e-003
 -7.0222128e-002  1.6402831e-002
 -4.8538638e-002  3.1221529e-002
 -4.0662164e-002  4.0247578e-002
 -4.7332420e-002  4.0843296e-002
 -5.7838968e-002  3.7521537e-002
 -5.9185796e-002  3.7780766e-002
 -4.6262198e-002  4.5907885e-002
 -2.5094282e-002  5.9891556e-002
 -7.1693885e-003  7.3676943e-002
  2.0538739e-006  8.2435269e-002
 -1.4875942e-003  8.6510698e-002
 -2.2029842e-003  9.1055094e-002
  6.7497851e-003  1.0172785e-001
  2.6886966e-002  1.2023407e-001
  5.1808791e-002  1.4316558e-001
  7.3002928e-002  1.6487185e-001
  8.6949837e-002  1.8186717e-001
  9.7686512e-002  1.9514672e-001
  1.1302720e-001  2.0883222e-001
  1.3781420e-001  2.2648050e-001
  1.6965660e-001  2.4804250e-001
  2.0060272e-001  2.6991898e-001
  2.2311311e-001  2.8771862e-001
  2.3550988e-001  2.9940851e-001
  2.4253507e-001  3.0622813e-001
  2.5080619e-001  3.1089004e-001
  2.6296217e-001  3.1473346e-001
  2.7512449e-001  3.1622545e-001
  2.7943308e-001  3.1183892e-001
  2.6950901e-001  2.9847619e-001
  2.4456437e-001  2.7541773e-001
  2.0928794e-001  2.4444470e-001
  1.7019167e-001  2.0844663e-001
  1.3160361e-001  1.6992430e-001
  9.4540000e-002  1.3081990e-001
  5.8619044e-002  9.3320438e-002
  2.4796659e-002  6.0447078e-002
 -3.8874463e-003  3.5261244e-002
 -2.4299557e-002  1.8997477e-002
 -3.6051789e-002  9.6919232e-003
 -4.2453647e-002  2.8440802e-003
 -4.8460402e-002 -5.9793618e-003
 -5.7012553e-002 -1.8169680e-002
 -6.6879741e-002 -3.1101642e-002
 -7.3875673e-002 -4.0071285e-002
 -7.4571183e-002 -4.1873784e-002
 -6.9491886e-002 -3.7326274e-002
 -6.3168461e-002 -3.0839195e-002
 -6.0904237e-002 -2.7331631e-002
 -6.4854424e-002 -2.8890531e-002
 -7.2487063e-002 -3.3616384e-002
 -7.8695347e-002 -3.7513081e-002
 -7.9797185e-002 -3.7796094e-002
 -7.6251375e-002 -3.4982848e-002
 -7.1906416e-002 -3.2080182e-002
 -7.0632475e-002 -3.1766088e-002
 -7.3128977e-002 -3.3963258e-002
 -7.6583953e-002 -3.5944084e-002
 -7.7284571e-002 -3.4809954e-002
 -7.3935511e-002 -3.0304486e-002
 -6.8866350e-002 -2.5533723e-002
 -6.6089873e-002 -2.4772703e-002
 -6.7901245e-002 -3.0071200e-002
 -7.2932293e-002 -3.9378265e-002
 -7.7322441e-002 -4.7810229e-002
 -7.8000435e-002 -5.1185257e-002
 -7.5257109e-002 -4.9048122e-002
 -7.2418252e-002 -4.4831399e-002
 -7.2887055e-002 -4.3041268e-002
 -7.7084757e-002 -4.5752398e-002
 -8.1920204e-002 -5.1127204e-002
 -8.3297555e-002 -5.5089918e-002
 -7.9626388e-002 -5.4810311e-002
 -7.3284998e-002 -5.1059961e-002
 -6.8725082e-002 -4.7548417e-002
 -6.8755299e-002 -4.7827080e-002
 -7.2188475e-002 -5.2359882e-002
 -7.4918757e-002 -5.8191000e-002
 -7.3649839e-002 -6.1490118e-002
 -6.9019829e-002 -6.0757907e-002
 -6.5424726e-002 -5.8118026e-002
 -6.7302440e-002 -5.7451975e-002
 -7.4941488e-002 -6.0961807e-002
 -8.3373359e-002 -6.6986289e-002
 -8.5757511e-002 -7.1129450e-002
 -7.8782062e-002 -6.9843733e-002
 -6.5817641e-002 -6.3604121e-002
 -5.4999664e-002 -5.6944695e-002
 -5.3407321e-002 -5.5136139e-002
 -6.1753491e-002 -6.0071594e-002
 -7.3638006e-002 -6.8505295e-002
 -8.0269903e-002 -7.4333743e-002
 -7.7043475e-002 -7.3208421e-002
 -6.6913729e-002 -6.5940590e-002
 -5.7943575e-002 -5.8005225e-002
 -5.6946447e-002 -5.5436426e-002
 -6.4203596e-002 -6.0265966e-002
 -7.3462989e-002 -6.9048195e-002
 -7.7088512e-002 -7.5492381e-002
 -7.2226025e-002 -7.5189554e-002
 -6.3013522e-002 -6.8773862e-002
 -5.7084160e-002 -6.1171642e-002
 -5.9250895e-002 -5.7650083e-002
 -6.7529732e-002 -5.9831730e-002
 -7.4792916e-002 -6.4773719e-002
 -7.4692650e-002 -6.7610981e-002
 -6.6887681e-002 -6.5344314e-002
 -5.7206226e-002 -5.8678978e-002
 -5.2570937e-002 -5.0644053e-002
 -5.4892760e-002 -4.3424282e-002
 -5.9089368e-002 -3.6337896e-002
 -5.7105327e-002 -2.6784619e-002
 -4.4773131e-002 -1.3381661e-002
 -2.5752592e-002  1.5901663e-003
 -9.0190474e-003  1.2866130e-002
 -1.7573582e-003  1.5668355e-002
 -3.5007118e-003  9.2291447e-003
 -6.6242692e-003 -2.6161030e-003
 -3.2189846e-003 -1.4428468e-002
  7.2070276e-003 -2.3246971e-002
  1.5815426e-002 -3.0489697e-002
  1.0661095e-002 -3.9773618e-002
 -1.3436032e-002 -5.2694802e-002
 -4.9310714e-002 -6.6360640e-002
 -8.1361227e-002 -7.5301587e-002
 -9.6548117e-002 -7.6396815e-002
 -9.4144837e-002 -7.2606986e-002
 -8.6183401e-002 -7.1586527e-002
 -8.7621116e-002 -7.9512467e-002
 -1.0356379e-001 -9.4817525e-002
 -1.2422648e-001 -1.0779119e-001
 -1.3267341e-001 -1.0780257e-001
 -1.2019183e-001 -9.3527742e-002
 -9.6827356e-002 -7.7623322e-002
 -8.6795750e-002 -7.9826929e-002
 -1.0959899e-001 -1.1086962e-001
 -1.5977215e-001 -1.5784047e-001
 -2.0170294e-001 -1.8320789e-001
 -1.8718872e-001 -1.4231971e-001
 -8.7421829e-002 -1.1704713e-002
  8.1081157e-002  1.8879136e-001
  2.5567749e-001  3.9573778e-001
  3.5629847e-001  5.2768076e-001
  3.2847847e-001  5.2443813e-001
  1.7505328e-001  3.7854123e-001
 -4.3262740e-002  1.4066068e-001
 -2.3930659e-001 -1.0439924e-001
 -3.4422927e-001 -2.7776564e-001
 -3.3935745e-001 -3.4061467e-001
 -2.5789862e-001 -3.0482971e-001
 -1.5865079e-001 -2.1739631e-001
 -9.0322713e-002 -1.3054308e-001
 -6.8601153e-002 -7.6028351e-002
 -7.7243289e-002 -5.6606587e-002
 -8.7813043e-002 -5.5380430e-002
 -8.1912675e-002 -5.3243886e-002
 -6.1031840e-002 -4.1893151e-002
 -4.0058923e-002 -2.5537174e-002
 -3.2384366e-002 -1.3297047e-002
 -3.9047630e-002 -1.0069925e-002
 -4.9345158e-002 -1.2903490e-002
 -5.0618937e-002 -1.4386010e-002
 -3.8420230e-002 -9.0840128e-003
 -1.9103083e-002  2.4885120e-003
 -3.7764761e-003  1.5036020e-002
  6.9553211e-004  2.3091479e-002
 -3.6284258e-003  2.5032059e-002
 -8.4829500e-003  2.3582644e-002
 -6.5140667e-003  2.3125984e-002
  3.3806610e-003  2.6446960e-002
  1.6450360e-002  3.3510876e-002
  2.7260183e-002  4.2830436e-002
  3.4729290e-002  5.3591176e-002
  4.2700365e-002  6.6357803e-002
  5.5942810e-002  8.1964304e-002
  7.5339237e-002  9.9866676e-002
  9.6702491e-002  1.1784840e-001
  1.1428232e-001  1.3358915e-001
  1.2596499e-001  1.4678065e-001
  1.3557364e-001  1.5973888e-001
  1.5005080e-001  1.7563939e-001
  1.7373544e-001  1.9569799e-001
  2.0440684e-001  2.1767921e-001
  2.3454906e-001  2.3723181e-001
  2.5695602e-001  2.5117243e-001
  2.7024509e-001  2.6012057e-001
  2.7974759e-001  2.6818531e-001
  2.9285805e-001  2.7962108e-001
  3.1233484e-001  2.9484326e-001
  3.3290479e-001  3.0900048e-001
  3.4400086e-001  3.1444393e-001
  3.3679756e-001  3.0555132e-001
  3.1027875e-001  2.8237586e-001
  2.7188448e-001  2.5050169e-001
  2.3237175e-001  2.1725242e-001
  1.9882951e-001  1.8708032e-001
  1.7099550e-001  1.5945521e-001
  1.4331093e-001  1.3062150e-001
  1.1071471e-001  9.7695672e-002
  7.3506643e-002  6.1821007e-002
  3.7542259e-002  2.7947867e-002
  9.9455978e-003  1.5531328e-003
 -6.0496481e-003 -1.5034247e-002
 -1.3059548e-002 -2.3900129e-002
 -1.7033744e-002 -2.9617064e-002
 -2.2586380e-002 -3.5813310e-002
 -2.9941472e-002 -4.2886639e-002
 -3.5786675e-002 -4.8550341e-002
 -3.6976167e-002 -5.0461304e-002
 -3.3782407e-002 -4.8593845e-002
 -2.9923572e-002 -4.5364290e-002
 -2.9531647e-002 -4.3584472e-002
 -3.3741449e-002 -4.4134558e-002
 -3.9854024e-002 -4.5417256e-002
 -4.3762249e-002 -4.5056109e-002
 -4.3494820e-002 -4.2334327e-002
 -4.0894268e-002 -3.9209068e-002
 -3.9902375e-002 -3.8839942e-002
 -4.3000346e-002 -4.2797586e-002
 -4.8806209e-002 -4.9246435e-002
 -5.3048900e-002 -5.3883744e-002
 -5.2182152e-002 -5.3075021e-002
 -4.6594332e-002 -4.6791757e-002
 -4.0666960e-002 -3.8998768e-002
 -3.9452037e-002 -3.5025774e-002
 -4.4614645e-002 -3.7826206e-002
 -5.2961527e-002 -4.5886599e-002
 -5.8891870e-002 -5.4400706e-002
 -5.8887390e-002 -5.8759982e-002
 -5.4384140e-002 -5.7700486e-002
 -5.0648337e-002 -5.3765735e-002
 -5.2427432e-002 -5.0932698e-002
 -5.9870599e-002 -5.1434724e-002
 -6.8085062e-002 -5.4341372e-002
 -7.0752108e-002 -5.6846569e-002
 -6.5040158e-002 -5.7002139e-002
 -5.3980150e-002 -5.5561096e-002
 -4.4333589e-002 -5.5272716e-002
 -4.1688241e-002 -5.8335921e-002
 -4.6558240e-002 -6.4198998e-002
 -5.4525099e-002 -6.9759692e-002
 -6.0081813e-002 -7.1851602e-002
 -6.0950144e-002 -6.9989136e-002
 -5.9344777e-002 -6.6940143e-002
 -5.9346047e-002 -6.6559290e-002
 -6.2777899e-002 -7.0526535e-002
 -6.7159923e-002 -7.6621840e-002
 -6.7677172e-002 -8.0203808e-002
 -6.1497199e-002 -7.7839127e-002
 -5.0781636e-002 -7.0279421e-002
 -4.1625141e-002 -6.2298914e-002
 -3.9517834e-002 -5.9297378e-002
 -4.5007458e-002 -6.3305424e-002
 -5.3161661e-002 -7.1442850e-002
 -5.7364005e-002 -7.8014633e-002
 -5.4587551e-002 -7.8739310e-002
 -4.7815175e-002 -7.3840568e-002
 -4.3562776e-002 -6.7637590e-002
 -4.6431970e-002 -6.5018718e-002
 -5.5104209e-002 -6.7623601e-002
 -6.3216306e-002 -7.2810928e-002
 -6.4512606e-002 -7.6118262e-002
 -5.8057972e-002 -7.5023653e-002
 -4.9237839e-002 -7.1003062e-002
 -4.5416734e-002 -6.8064040e-002
 -4.9765755e-002 -6.9113083e-002
 -5.8233561e-002 -7.3083719e-002
 -6.2415249e-002 -7.5385471e-002
 -5.6227261e-002 -7.1372547e-002
 -4.1133988e-002 -6.0117129e-002
 -2.5424600e-002 -4.5255167e-002
 -1.8007092e-002 -3.2290082e-002
 -2.1411891e-002 -2.4409481e-002
 -2.9638980e-002 -2.0261682e-002
 -3.2689972e-002 -1.5456294e-002
 -2.4289163e-002 -6.5981720e-003
 -6.6409438e-003  5.4990201e-003
  1.1552805e-002  1.6058340e-002
  2.2209575e-002  1.9937319e-002
  2.4189575e-002  1.5542224e-002
  2.3517813e-002  5.8234075e-003
  2.7255530e-002 -4.4614036e-003
  3.6205069e-002 -1.2677739e-002
  4.2875651e-002 -2.0129070e-002
  3.6956185e-002 -3.0116570e-002
  1.4307784e-002 -4.3889733e-002
 -1.8037665e-002 -5.8331334e-002
 -4.5634180e-002 -6.7827148e-002
 -5.6908851e-002 -6.9105676e-002
 -5.1958115e-002 -6.4795351e-002
 -4.2451799e-002 -6.2022943e-002
 -4.2080879e-002 -6.6469036e-002
 -5.4993738e-002 -7.6756392e-002
 -7.1893190e-002 -8.4565553e-002
 -7.7942448e-002 -8.1744046e-002
 -6.6896583e-002 -6.9418723e-002
 -4.9590997e-002 -6.0891316e-002
 -4.7951711e-002 -7.3396948e-002
 -7.6626305e-002 -1.1219423e-001
 -1.2527266e-001 -1.5810522e-001
 -1.5669503e-001 -1.7005832e-001
 -1.2640116e-001 -1.0559972e-001
 -1.3514380e-002  5.0427263e-002
  1.5725017e-001  2.6679595e-001
  3.1956767e-001  4.7105100e-001
  3.9687661e-001  5.8000871e-001
  3.4416902e-001  5.4071340e-001
  1.7498633e-001  3.5903493e-001
 -4.3574638e-002  9.8949782e-002
 -2.2561794e-001 -1.4779825e-001
 -3.1021089e-001 -3.0470412e-001
 -2.8872288e-001 -3.4276930e-001
 -2.0121306e-001 -2.8573670e-001
 -1.0706376e-001 -1.8861526e-001
 -5.0040092e-002 -1.0471071e-001
 -3.8921608e-002 -6.0850903e-002
 -5.2592069e-002 -5.2732346e-002
 -6.1865322e-002 -5.8471801e-002
 -5.1034586e-002 -5.8072359e-002
 -2.5251359e-002 -4.5527550e-002
 -1.7245593e-003 -2.7988458e-002
  5.8946950e-003 -1.6038007e-002
 -2.4983215e-003 -1.4180977e-002
 -1.5399049e-002 -1.8369925e-002
 -2.0131997e-002 -2.0871014e-002
 -1.2543216e-002 -1.7093921e-002
  1.3546769e-003 -8.6415042e-003
  1.1982618e-002 -6.5964412e-004
  1.4666591e-002  3.4332986e-003
  1.2944807e-002  4.9808333e-003
  1.4637631e-002  8.5363645e-003
  2.4599131e-002  1.7521589e-002
  4.0435222e-002  3.0920435e-002
  5.4624763e-002  4.3938189e-002
  6.1054123e-002  5.2032328e-002
  6.0350806e-002  5.4854859e-002
  5.9686894e-002  5.6838646e-002
  6.7159628e-002  6.3846493e-002
  8.5432994e-002  7.8690637e-002
  1.0965889e-001  9.9022603e-002
  1.3127203e-001  1.1917340e-001
  1.4456785e-001  1.3444061e-001
  1.5096652e-001  1.4447196e-001
  1.5776783e-001  1.5325886e-001
  1.7249322e-001  1.6587839e-001
  1.9729919e-001  1.8467755e-001
  2.2755106e-001  2.0770664e-001
  2.5540654e-001  2.3038538e-001
  2.7534673e-001  2.4874869e-001
  2.8744893e-001  2.6169585e-001
  2.9620090e-001  2.7073065e-001
  3.0604366e-001  2.7764858e-001
  3.1724190e-001  2.8226070e-001
  3.2510246e-001  2.8193734e-001
  3.2297070e-001  2.7327596e-001
  3.0657823e-001  2.5445604e-001
  2.7660832e-001  2.2644265e-001
  2.3804279e-001  1.9241562e-001
  1.9711643e-001  1.5603781e-001
  1.5830996e-001  1.2006598e-001
  1.2322876e-001  8.6054999e-002
  9.1583652e-002  5.4994654e-002
  6.3021646e-002  2.7966081e-002
  3.8156025e-002  6.0747141e-003
  1.8188510e-002 -1.0251030e-002
  3.7806688e-003 -2.1775040e-002
 -5.7313693e-003 -3.0158503e-002
 -1.2154618e-002 -3.6978810e-002
 -1.7494981e-002 -4.2886729e-002
 -2.3030404e-002 -4.7589874e-002
 -2.8898350e-002 -5.0578863e-002
 -3.4368952e-002 -5.1967337e-002
 -3.8442617e-002 -5.2644115e-002
 -4.0402113e-002 -5.3618777e-002
 -4.0170746e-002 -5.5124421e-002
 -3.8382947e-002 -5.6319527e-002
 -3.6254028e-002 -5.5971888e-002
 -3.5136875e-002 -5.3583975e-002
 -3.5765166e-002 -4.9909689e-002
 -3.7729465e-002 -4.6518042e-002
 -3.9605135e-002 -4.4711483e-002
 -3.9891298e-002 -4.4724376e-002
 -3.8225801e-002 -4.5806718e-002
 -3.5938089e-002 -4.7063057e-002
 -3.5326871e-002 -4.8248037e-002
 -3.7947334e-002 -4.9790799e-002
 -4.3100762e-002 -5.1988777e-002
 -4.7825584e-002 -5.4248986e-002
 -4.8684328e-002 -5.5187390e-002
 -4.4266476e-002 -5.3749547e-002
 -3.6491587e-002 -5.0378510e-002
 -2.9625492e-002 -4.7161087e-002
 -2.7500027e-002 -4.6586250e-002
 -3.0921327e-002 -4.9744694e-002
 -3.7130599e-002 -5.5317355e-002
 -4.1832355e-002 -6.0307853e-002
 -4.2344422e-002 -6.2156346e-002
 -3.9538789e-002 -6.0673472e-002
 -3.7043796e-002 -5.8232609e-002
 -3.8407813e-002 -5.8076104e-002
 -4.4306176e-002 -6.1920907e-002
 -5.1947848e-002 -6.8709030e-002
 -5.7069660e-002 -7.5392365e-002
 -5.6942544e-002 -7.9110817e-002
 -5.2192816e-002 -7.9140149e-002
 -4.6109527e-002 -7.7125595e-002
 -4.2142578e-002 -7.5508835e-002
 -4.1602732e-002 -7.5541149e-002
 -4.3224173e-002 -7.6472087e-002
 -4.4670719e-002 -7.6493026e-002
 -4.4533278e-002 -7.4514146e-002
 -4.3168510e-002 -7.1227758e-002
 -4.1940273e-002 -6.8660839e-002
 -4.1725573e-002 -6.8569119e-002
 -4.2152928e-002 -7.1050058e-002
 -4.2195889e-002 -7.4520321e-002
 -4.1458486e-002 -7.7024205e-002
 -4.0752253e-002 -7.7670173e-002
 -4.1344434e-002 -7.6985038e-002
 -4.3526761e-002 -7.5994544e-002
 -4.5967807e-002 -7.5010021e-002
 -4.6669130e-002 -7.3339935e-002
 -4.4815244e-002 -7.0193363e-002
 -4.1873990e-002 -6.5992114e-002
 -4.0760869e-002 -6.2730555e-002
 -4.3448083e-002 -6.2763829e-002
 -4.8975035e-002 -6.6802419e-002
 -5.3700749e-002 -7.2804633e-002
 -5.3921492e-002 -7.6876580e-002
 -4.8870727e-002 -7.5693878e-002
 -4.1543707e-002 -6.8664171e-002
 -3.6391820e-002 -5.8119770e-002
 -3.5573272e-002 -4.7419646e-002
 -3.6798641e-002 -3.8445826e-002
 -3.4779186e-002 -3.0479662e-002
 -2.5371995e-002 -2.1405855e-002
 -9.2594061e-003 -1.0247626e-002
  8.0681584e-003  1.1908475e-003
  2.0174466e-002  8.9706415e-003
  2.4526935e-002  9.5898421e-003
  2.4221419e-002  2.3801958e-003
  2.4954120e-002 -1.0151691e-002
  2.9518675e-002 -2.4211533e-002
  3.4440281e-002 -3.7224851e-002
  3.1919519e-002 -4.8883907e-002
  1.5995815e-002 -6.0061998e-002
 -1.1840211e-002 -7.0950392e-002
 -4.2378898e-002 -8.0378415e-002
 -6.4538305e-002 -8.7057896e-002
 -7.3041194e-002 -9.1497458e-002
 -7.1841227e-002 -9.6251104e-002
 -7.0217217e-002 -1.0354254e-001
 -7.4592533e-002 -1.1218655e-001
 -8.2873232e-002 -1.1702145e-001
 -8.6678760e-002 -1.1282177e-001
 -8.0316240e-002 -1.0058865e-001
 -6.8860893e-002 -9.0687019e-002
 -6.7291858e-002 -9.8161102e-002
 -8.8671340e-002 -1.3058701e-001
 -1.2901137e-001 -1.7591737e-001
 -1.6125090e-001 -2.0048287e-001
 -1.4639408e-001 -1.6278261e-001
 -5.8160566e-002 -3.8474410e-002
  9.3713929e-002  1.5744045e-001
  2.5843787e-001  3.6670166e-001
  3.6454192e-001  5.0878182e-001
  3.5650416e-001  5.1845264e-001
  2.2666884e-001  3.8010658e-001
  2.2564357e-002  1.3883551e-001
 -1.7595640e-001 -1.1926431e-001
 -2.9705812e-001 -3.0748501e-001
 -3.1134632e-001 -3.7755203e-001
 -2.4111950e-001 -3.3653075e-001
 -1.4105539e-001 -2.3430960e-001
 -6.4280323e-002 -1.3159439e-001
 -3.5131629e-002 -6.8393412e-002
 -4.3581371e-002 -5.0280971e-002
 -6.0926020e-002 -5.6763040e-002
 -6.3225434e-002 -6.2226073e-002
 -4.6049404e-002 -5.3922286e-002
 -2.2609835e-002 -3.6455354e-002
 -9.6529104e-003 -2.2852848e-002
 -1.3348845e-002 -2.1509631e-002
 -2.5477729e-002 -2.9330830e-002
 -3.1388025e-002 -3.5318214e-002
 -2.2209239e-002 -3.0242429e-002
 -1.4934768e-003 -1.4109237e-002
  1.8327515e-002  4.3008441e-003
  2.6163135e-002  1.4930495e-002
  2.0788606e-002  1.4461958e-002
  1.1337957e-002  8.6546586e-003
  9.9370149e-003  7.6447048e-003
  2.2508382e-002  1.8070260e-002
  4.4698271e-002  3.8228794e-002
  6.5700498e-002  5.9809266e-002
  7.6544024e-002  7.4403321e-002
  7.6466962e-002  7.9629789e-002
  7.2884741e-002  8.0329916e-002
  7.5489222e-002  8.4389397e-002
  8.9346685e-002  9.6773947e-002
  1.1202579e-001  1.1632842e-001
  1.3645724e-001  1.3750664e-001
  1.5675973e-001  1.5523272e-001
  1.7244351e-001  1.6886477e-001
  1.8796556e-001  1.8223109e-001
  2.0845088e-001  1.9997943e-001
  2.3528906e-001  2.2346405e-001
  2.6488767e-001  2.4935765e-001
  2.9131007e-001  2.7190969e-001
  3.1045381e-001  2.8693991e-001
  3.2238944e-001  2.9429656e-001
  3.3029018e-001  2.9706155e-001
  3.3695074e-001  2.9825836e-001
  3.4177293e-001  2.9785693e-001
  3.4062473e-001  2.9250309e-001
  3.2860988e-001  2.7811746e-001
  3.0356594e-001  2.5319932e-001
  2.6782098e-001  2.2032714e-001
  2.2703295e-001  1.8472674e-001
  1.8706865e-001  1.5106658e-001
  1.5121512e-001  1.2092834e-001
  1.1949684e-001  9.2763095e-002
  9.0246547e-002  6.4214563e-002
  6.2467879e-002  3.4870485e-002
  3.7159887e-002  7.2479928e-003
  1.6739737e-002 -1.4694701e-002
  3.2253855e-003 -2.8294124e-002
 -3.4230745e-003 -3.4143406e-002
 -5.5276275e-003 -3.5790305e-002
 -6.4724192e-003 -3.7518926e-002
 -8.8835515e-003 -4.1733101e-002
 -1.3460927e-002 -4.7804013e-002
 -1.9184728e-002 -5.3066714e-002
 -2.4434703e-002 -5.4993406e-002
 -2.8175039e-002 -5.2942205e-002
 -3.0433920e-002 -4.8372096e-002
 -3.1940148e-002 -4.3640897e-002
 -3.3332777e-002 -4.0427888e-002
 -3.4669986e-002 -3.8941989e-002
 -3.5556915e-002 -3.8356517e-002
 -3.5672544e-002 -3.7895838e-002
 -3.5202401e-002 -3.7618386e-002
 -3.4777368e-002 -3.8283380e-002
 -3.4998532e-002 -4.0519725e-002
 -3.6012433e-002 -4.4144390e-002
 -3.7503709e-002 -4.8189114e-002
 -3.9062446e-002 -5.1563119e-002
 -4.0641435e-002 -5.3788776e-002
 -4.2556344e-002 -5.5188477e-002
 -4.4987132e-002 -5.6310326e-002
 -4.7394694e-002 -5.7177333e-002
 -4.8504573e-002 -5.7081407e-002
 -4.7101262e-002 -5.5267093e-002
 -4.3190016e-002 -5.1994085e-002
 -3.8573052e-002 -4.9021788e-002
 -3.6091234e-002 -4.8864131e-002
 -3.7820468e-002 -5.3152802e-002
 -4.3376154e-002 -6.1191312e-002
 -4.9703230e-002 -6.9869454e-002
 -5.2845769e-002 -7.5305368e-002
 -5.0764210e-002 -7.5350380e-002
 -4.5153158e-002 -7.1216705e-002
 -4.0700581e-002 -6.6919553e-002
 -4.2013945e-002 -6.6764875e-002
 -5.0215044e-002 -7.2480214e-002
 -6.1617256e-002 -8.1887753e-002
 -6.9810875e-002 -9.0191014e-002
 -6.9841224e-002 -9.3007298e-002
 -6.1683452e-002 -8.9181321e-002
 -5.0390984e-002 -8.1392108e-002
 -4.2724132e-002 -7.4224083e-002
 -4.2504830e-002 -7.1030769e-002
 -4.8194219e-002 -7.1980659e-002
 -5.4444563e-002 -7.4559738e-002
 -5.6397481e-002 -7.5972255e-002
 -5.3448871e-002 -7.5517727e-002
 -4.9483618e-002 -7.5018249e-002
 -4.9441405e-002 -7.7028513e-002
 -5.4889885e-002 -8.2252584e-002
 -6.2352774e-002 -8.8403418e-002
 -6.5925599e-002 -9.1611843e-002
 -6.2284632e-002 -8.9426915e-002
 -5.3966345e-002 -8.3003802e-002
 -4.8026159e-002 -7.6612783e-002
 -5.0706795e-002 -7.4664398e-002
 -6.2112024e-002 -7.8356571e-002
 -7.5228944e-002 -8.4536194e-002
 -8.0554531e-002 -8.7788363e-002
 -7.3065422e-002 -8.4228583e-002
 -5.6370174e-002 -7.4260904e-002
 -4.0432386e-002 -6.2033994e-002
 -3.4404405e-002 -5.2133120e-002
 -3.9832104e-002 -4.6146371e-002
 -4.9345584e-002 -4.1705290e-002
 -5.2055145e-002 -3.4854478e-002
 -4.1597337e-002 -2.3781429e-002
 -2.0711706e-002 -1.0860683e-002
  1.0792346e-003 -1.3131390e-003
  1.4739949e-002  4.9036425e-004
  1.8075360e-002 -5.8823612e-003
  1.6131241e-002 -1.6982086e-002
  1.5494006e-002 -2.8533639e-002
  1.7491837e-002 -3.8828550e-002
  1.6289671e-002 -4.9429344e-002
  3.9119469e-003 -6.2609219e-002
 -2.1883127e-002 -7.7859362e-002
 -5.3586109e-002 -9.0907358e-002
 -7.7990468e-002 -9.6675198e-002
 -8.5829039e-002 -9.4128241e-002
 -7.9363881e-002 -8.8674113e-002
 -7.1190558e-002 -8.9066406e-002
 -7.4259034e-002 -1.0030569e-001
 -9.0794135e-002 -1.1829708e-001
 -1.0944645e-001 -1.3136198e-001
 -1.1430595e-001 -1.2913297e-001
 -9.9521136e-002 -1.1273344e-001
 -7.7556667e-002 -9.7593847e-002
 -7.2380533e-002 -1.0411163e-001
 -1.0014890e-001 -1.4035916e-001
 -1.5081102e-001 -1.8860059e-001
 -1.8617687e-001 -2.0748670e-001
 -1.5993494e-001 -1.5275013e-001
 -4.9399269e-002 -6.4401662e-003
  1.2161035e-001  2.0317352e-001
  2.8644570e-001  4.0592897e-001
  3.6726166e-001  5.1944733e-001
  3.1762098e-001  4.8968390e-001
  1.5030993e-001  3.1978997e-001
 -6.7306278e-002  7.0383534e-002
 -2.4833107e-001 -1.6937341e-001
 -3.3098935e-001 -3.2378862e-001
 -3.0665522e-001 -3.6267650e-001
 -2.1637093e-001 -3.0740028e-001
 -1.2089695e-001 -2.1069923e-001
 -6.4818329e-002 -1.2478654e-001
 -5.6661591e-002 -7.6899681e-002
 -7.4117710e-002 -6.4104939e-002
 -8.6644147e-002 -6.5959876e-002
 -7.7771237e-002 -6.3258166e-002
 -5.2725141e-002 -4.9979442e-002
 -2.9235190e-002 -3.2736804e-002
 -2.1215910e-002 -2.1421618e-002
 -2.8393359e-002 -1.9829704e-002
 -3.8565951e-002 -2.3228574e-002
 -3.8821053e-002 -2.3327545e-002
 -2.5839794e-002 -1.5551694e-002
 -7.3239276e-003 -2.2952871e-003
  5.4685347e-003  9.7716445e-003
  7.1965537e-003  1.5498216e-002
  2.2496796e-003  1.5281618e-002
  3.8753777e-004  1.4396531e-002
  8.3565973e-003  1.8494848e-002
  2.4508997e-002  2.9213493e-002
  4.0609556e-002  4.3302149e-002
  4.9072935e-002  5.5712133e-002
  4.9358382e-002  6.3748795e-002
  4.8483035e-002  6.9070066e-002
  5.5327942e-002  7.6100198e-002
  7.3518499e-002  8.8483796e-002
  9.8615022e-002  1.0651793e-001
  1.2172578e-001  1.2739773e-001
  1.3656793e-001  1.4772808e-001
  1.4442326e-001  1.6612458e-001
  1.5308228e-001  1.8370785e-001
  1.7080613e-001  2.0242628e-001
  1.9996710e-001  2.2279758e-001
  2.3522751e-001  2.4316761e-001
  2.6742093e-001  2.6102302e-001
  2.8992336e-001  2.7511200e-001
  3.0269299e-001  2.8643697e-001
  3.1112259e-001  2.9719185e-001
  3.2091019e-001  3.0839834e-001
  3.3296749e-001  3.1807499e-001
  3.4222209e-001  3.2160521e-001
  3.4098031e-001  3.1417365e-001
  3.2419265e-001  2.9367928e-001
  2.9272383e-001  2.6205495e-001
  2.5255360e-001  2.2419860e-001
  2.1095689e-001  1.8547011e-001
  1.7261302e-001  1.4940861e-001
  1.3821021e-001  1.1698601e-001
  1.0610977e-001  8.7559431e-002
  7.5159648e-002  6.0443517e-002
  4.6385778e-002  3.5867998e-002
  2.2358423e-002  1.4744559e-002
  5.1442674e-003 -2.2000911e-003
 -5.3765555e-003 -1.5087242e-002
 -1.1456344e-002 -2.4747552e-002
 -1.5920386e-002 -3.2065004e-002
 -2.0424818e-002 -3.7412257e-002
 -2.4803054e-002 -4.0604572e-002
 -2.7932191e-002 -4.1440967e-002
 -2.9186646e-002 -4.0284032e-002
 -2.9279850e-002 -3.8200001e-002
 -2.9830574e-002 -3.6485288e-002
 -3.2093235e-002 -3.5978389e-002
 -3.5925059e-002 -3.6656732e-002
 -3.9768140e-002 -3.7763557e-002
 -4.1649264e-002 -3.8267549e-002
 -4.0513911e-002 -3.7432610e-002
 -3.6994198e-002 -3.5218479e-002
 -3.3100217e-002 -3.2365095e-002
 -3.1054233e-002 -3.0103479e-002
 -3.2029899e-002 -2.9645041e-002
 -3.5516132e-002 -3.1572806e-002
 -3.9667772e-002 -3.5430353e-002
 -4.2332430e-002 -3.9715359e-002
 -4.2248506e-002 -4.2520634e-002
 -3.9790024e-002 -4.2647119e-002
 -3.6776327e-002 -4.0506324e-002
 -3.5507620e-002 -3.8159204e-002
 -3.7492261e-002 -3.8222056e-002
 -4.2571438e-002 -4.2190674e-002
 -4.8954566e-002 -4.9259966e-002
 -5.4125506e-002 -5.6460315e-002
 -5.6178459e-002 -6.0278543e-002
 -5.4762209e-002 -5.8801576e-002
 -5.1138587e-002 -5.3019689e-002
 -4.7410747e-002 -4.6328772e-002
 -4.5377563e-002 -4.2468283e-002
 -4.5795250e-002 -4.3315937e-002
 -4.8299098e-002 -4.7879909e-002
 -5.1858522e-002 -5.3152815e-002
 -5.5384964e-002 -5.6205993e-002
 -5.8182689e-002 -5.6157289e-002
 -6.0101416e-002 -5.4653147e-002
 -6.1479482e-002 -5.4597945e-002
 -6.3025719e-002 -5.8101747e-002
 -6.5490293e-002 -6.4975949e-002
 -6.9104102e-002 -7.2708047e-002
 -7.3027749e-002 -7.7881078e-002
 -7.5289541e-002 -7.8072162e-002
 -7.3689445e-002 -7.3196531e-002
 -6.7347280e-002 -6.5507677e-002
 -5.7922706e-002 -5.8373295e-002
 -4.9386383e-002 -5.4546435e-002
 -4.6055339e-002 -5.4894792e-002
 -4.9822711e-002 -5.8152772e-002
 -5.8515688e-002 -6.1780261e-002
 -6.6835331e-002 -6.3465980e-002
 -6.9623494e-002 -6.2463563e-002
 -6.5418625e-002 -6.0051661e-002
 -5.7617846e-002 -5.8682177e-002
 -5.2214870e-002 -6.0323489e-002
 -5.3453006e-002 -6.4972055e-002
 -6.0574557e-002 -7.0404189e-002
 -6.8151170e-002 -7.3412351e-002
 -6.9998567e-002 -7.1845507e-002
 -6.3894579e-002 -6.6111644e-002
 -5.3390254e-002 -5.8872845e-002
 -4.5163169e-002 -5.3021786e-002
 -4.3779443e-002 -4.9292390e-002
 -4.7853913e-002 -4.5375432e-002
 -5.0834643e-002 -3.7487564e-002
 -4.5911687e-002 -2.3404769e-002
 -3.1455534e-002 -4.8817710e-003
 -1.2558299e-002  1.2576513e-002
  2.7007017e-003  2.2712113e-002
  9.4292108e-003  2.2328088e-002
  9.5862027e-003  1.3167679e-002
  9.8446873e-003  3.2782165e-004
  1.5212038e-002 -1.1589104e-002
  2.3547065e-002 -2.1626210e-002
  2.5940090e-002 -3.2380326e-002
  1.3328403e-002 -4.6728071e-002
 -1.5474653e-002 -6.4107457e-002
 -5.0922200e-002 -7.9712811e-002
 -7.8122176e-002 -8.7725646e-002
 -8.7134585e-002 -8.6231865e-002
 -8.0358747e-002 -7.9720081e-002
 -7.0853502e-002 -7.6412721e-002
 -7.2061562e-002 -8.1722126e-002
 -8.6752752e-002 -9.3116986e-002
 -1.0423897e-001 -1.0122324e-001
 -1.0911092e-001 -9.7564535e-002
 -9.5470517e-002 -8.3670040e-002
 -7.5011052e-002 -7.3576285e-002
 -7.0734881e-002 -8.5422961e-002
 -9.8474934e-002 -1.2568340e-001
 -1.4899763e-001 -1.7663972e-001
 -1.8550319e-001 -1.9813742e-001
 -1.6226022e-001 -1.4667052e-001
 -5.5149567e-002 -3.0836895e-003
  1.1526791e-001  2.0756305e-001
  2.8536701e-001  4.1828928e-001
  3.7749660e-001  5.4710268e-001
  3.4127541e-001  5.3595238e-001
  1.8286865e-001  3.8072647e-001
 -3.5923488e-002  1.3517104e-001
 -2.2890337e-001 -1.1401950e-001
 -3.2894964e-001 -2.8744714e-001
 -3.1871700e-001 -3.4691243e-001
 -2.3221488e-001 -3.0590592e-001
 -1.2916885e-001 -2.1372015e-001
 -5.9758681e-002 -1.2495922e-001
 -4.1126237e-002 -7.2828810e-002
 -5.7103607e-002 -5.9670180e-002
 -7.7020360e-002 -6.6232554e-002
 -7.8453072e-002 -7.0098414e-002
 -5.9069960e-002 -6.0353547e-002
 -3.2486489e-002 -4.0673846e-002
 -1.4464509e-002 -2.2003478e-002
 -1.0871154e-002 -1.2281011e-002
 -1.5597894e-002 -1.1116863e-002
 -1.7800708e-002 -1.1984279e-002
 -1.1353028e-002 -8.6208933e-003
  1.1708937e-003  6.2761694e-005
  1.2115746e-002  1.0129334e-002
  1.6032833e-002  1.6915432e-002
  1.4254053e-002  1.9321612e-002
  1.3274055e-002  2.0569243e-002
  1.8970495e-002  2.5283993e-002
  3.1663183e-002  3.5441507e-002
  4.6061627e-002  4.8720709e-002
  5.5900163e-002  6.0461617e-002
  5.9247690e-002  6.7508722e-002
  6.0170745e-002  7.0793321e-002
  6.5549947e-002  7.4672064e-002
  7.9731178e-002  8.3704468e-002
  1.0136776e-001  9.9493960e-002
  1.2473009e-001  1.1989689e-001
  1.4430431e-001  1.4104674e-001
  1.5892855e-001  1.6036059e-001
  1.7225463e-001  1.7809731e-001
  1.8938238e-001  1.9636012e-001
  2.1255207e-001  2.1662859e-001
  2.3931285e-001  2.3800819e-001
  2.6451982e-001  2.5767908e-001
  2.8431044e-001  2.7309346e-001
  2.9883863e-001  2.8402677e-001
  3.1154054e-001  2.9267051e-001
  3.2556086e-001  3.0149211e-001
  3.4017991e-001  3.1047895e-001
  3.5015481e-001  3.1602666e-001
  3.4852650e-001  3.1253166e-001
  3.3088065e-001  2.9575326e-001
  2.9807423e-001  2.6562562e-001
  2.5567812e-001  2.2666768e-001
  2.1075014e-001  1.8563677e-001
  1.6849244e-001  1.4816346e-001
  1.3089008e-001  1.1647951e-001
  9.7768381e-002  8.9540614e-002
  6.8819924e-002  6.5068091e-002
  4.4698458e-002  4.1824356e-002
  2.6281395e-002  2.0370569e-002
  1.3150897e-002  2.1875605e-003
  3.0281480e-003 -1.1815479e-002
 -7.0553033e-003 -2.2079666e-002
 -1.8510769e-002 -2.9826825e-002
 -2.9798203e-002 -3.5848498e-002
 -3.7235119e-002 -3.9769600e-002
 -3.7755396e-002 -4.0599811e-002
 -3.1622418e-002 -3.8107162e-002
 -2.2970779e-002 -3.3811967e-002
 -1.7438825e-002 -3.0454800e-002
 -1.8566373e-002 -3.0301077e-002
 -2.5418912e-002 -3.3424067e-002
 -3.3309066e-002 -3.7446955e-002
 -3.7135706e-002 -3.9101039e-002
 -3.4987212e-002 -3.6585157e-002
 -2.9422918e-002 -3.1038053e-002
 -2.5432593e-002 -2.5899886e-002
 -2.6634785e-002 -2.4540612e-002
 -3.2506468e-002 -2.7849297e-002
 -3.8748459e-002 -3.3567880e-002
 -4.0554106e-002 -3.7900417e-002
 -3.6278304e-002 -3.8183187e-002
 -2.8811973e-002 -3.4732604e-002
 -2.3558169e-002 -3.0510790e-002
 -2.4531338e-002 -2.8972705e-002
 -3.1344949e-002 -3.1606073e-002
 -3.9485335e-002 -3.7097400e-002
 -4.3584719e-002 -4.2557311e-002
 -4.1293965e-002 -4.5767057e-002
 -3.4863817e-002 -4.6609171e-002
 -2.9342843e-002 -4.6720467e-002
 -2.8803543e-002 -4.7812377e-002
 -3.3490806e-002 -5.0184051e-002
 -3.9948323e-002 -5.2625076e-002
 -4.3958999e-002 -5.3791763e-002
 -4.3884700e-002 -5.3713017e-002
 -4.1726200e-002 -5.3971582e-002
 -4.1142760e-002 -5.6257499e-002
 -4.4111612e-002 -6.0506158e-002
 -4.9107352e-002 -6.4439812e-002
 -5.2318039e-002 -6.5130904e-002
 -5.1019364e-002 -6.1581781e-002
 -4.6273381e-002 -5.6128096e-002
 -4.2577648e-002 -5.3283516e-002
 -4.4408511e-002 -5.6442796e-002
 -5.2316844e-002 -6.4890035e-002
 -6.1770917e-002 -7.3527084e-002
 -6.6138441e-002 -7.6130785e-002
 -6.1679870e-002 -6.9874199e-002
 -5.0777341e-002 -5.7808931e-002
 -4.0733315e-002 -4.7279977e-002
 -3.8662872e-002 -4.5031239e-002
 -4.6225209e-002 -5.2496599e-002
 -5.8193384e-002 -6.4681664e-002
 -6.6161559e-002 -7.3637104e-002
 -6.4735811e-002 -7.4120583e-002
 -5.5503034e-002 -6.7217779e-002
 -4.5719985e-002 -5.9284144e-002
 -4.2665092e-002 -5.6975211e-002
 -4.8029744e-002 -6.2161545e-002
 -5.6691694e-002 -7.0533573e-002
 -6.0872340e-002 -7.4898353e-002
 -5.6416381e-002 -7.0575017e-002
 -4.6181637e-002 -5.8732201e-002
 -3.7753452e-002 -4.5135108e-002
 -3.7104340e-002 -3.5303963e-002
 -4.3449999e-002 -3.0204192e-002
 -4.9416148e-002 -2.5850562e-002
 -4.6658524e-002 -1.7193705e-002
 -3.2577932e-002 -3.0884787e-003
 -1.2693622e-002  1.1816507e-002
  3.2797894e-003  1.9904856e-002
  8.7922165e-003  1.6151846e-002
  5.2517771e-003  1.9650600e-003
  3.6915490e-004 -1.5717909e-002
  1.2161261e-003 -2.9458553e-002
  7.6713423e-003 -3.6466692e-002
  1.1825024e-002 -3.9801543e-002
  4.1867041e-003 -4.4827723e-002
 -1.8158097e-002 -5.4176060e-002
 -4.8148667e-002 -6.5512207e-002
 -7.3264511e-002 -7.4095690e-002
 -8.4664105e-002 -7.7639749e-002
 -8.3691513e-002 -7.8923722e-002
 -8.0191223e-002 -8.3324542e-002
 -8.3635747e-002 -9.2970297e-002
 -9.4546363e-002 -1.0306375e-001
 -1.0380452e-001 -1.0486788e-001
 -1.0142937e-001 -9.4270234e-002
 -8.7833797e-002 -7.9038512e-002
 -7.7238721e-002 -7.6960259e-002
 -8.7994413e-002 -1.0299730e-001
 -1.2512101e-001 -1.5268586e-001
 -1.6837920e-001 -1.9453986e-001
 -1.7780209e-001 -1.8088259e-001
 -1.1717835e-001 -7.4893429e-002
  1.7905442e-002  1.2085013e-001
  1.8694931e-001  3.5337191e-001
  3.1840174e-001  5.3654447e-001
  3.4561320e-001  5.9052722e-001
  2.4463019e-001  4.8275827e-001
  5.0408742e-002  2.4690423e-001
 -1.5958895e-001 -3.1895891e-002
 -3.0537796e-001 -2.5780035e-001
 -3.4442082e-001 -3.6832636e-001
 -2.8844348e-001 -3.5787020e-001
 -1.8908532e-001 -2.7005017e-001
 -1.0378505e-001 -1.6679339e-001
 -6.4257076e-002 -9.4383805e-002
 -6.5774531e-002 -6.5569956e-002
 -8.0331373e-002 -6.4466039e-002
 -8.1182863e-002 -6.6326022e-002
 -6.0869298e-002 -5.6639458e-002
 -3.2024564e-002 -3.7718354e-002
 -1.3676150e-002 -2.1569641e-002
 -1.5261654e-002 -1.7309191e-002
 -3.0370924e-002 -2.3520504e-002
 -4.3285298e-002 -3.0336118e-002
 -4.1758207e-002 -2.8090673e-002
 -2.5585673e-002 -1.4872521e-002
 -5.0889286e-003  2.7811389e-003
  8.0221001e-003  1.5751793e-002
  9.5590878e-003  1.9552534e-002
  4.7744866e-003  1.7133476e-002
  2.8225018e-003  1.5713675e-002
  9.0793082e-003  2.0816354e-002
  2.1657092e-002  3.2455747e-002
  3.4271066e-002  4.6101700e-002
  4.2409670e-002  5.7027606e-002
  4.7234159e-002  6.4297406e-002
  5.4120051e-002  7.1098754e-002
  6.7435984e-002  8.1537470e-002
  8.6455848e-002  9.7005499e-002
  1.0597043e-001  1.1525306e-001
  1.2097970e-001  1.3269124e-001
  1.3133237e-001  1.4777142e-001
  1.4223821e-001  1.6242301e-001
  1.6013116e-001  1.8034483e-001
  1.8718662e-001  2.0354730e-001
  2.1907463e-001  2.3010492e-001
  2.4784543e-001  2.5503354e-001
  2.6769935e-001  2.7370045e-001
  2.7904821e-001  2.8501862e-001
  2.8764025e-001  2.9192229e-001
  2.9943731e-001  2.9867725e-001
  3.1536136e-001  3.0721041e-001
  3.2983461e-001  3.1509073e-001
  3.3423324e-001  3.1667585e-001
  3.2251134e-001  3.0650761e-001
  2.9484654e-001  2.8257718e-001
  2.5697444e-001  2.4739021e-001
  2.1618390e-001  2.0641603e-001
  1.7732679e-001  1.6535370e-001
  1.4162260e-001  1.2806772e-001
  1.0837606e-001  9.6048555e-002
  7.7482902e-002  6.9094404e-002
  5.0302998e-002  4.6203921e-002
  2.8383621e-002  2.6150787e-002
  1.1631581e-002  7.7920743e-003
 -2.0154387e-003 -9.5170276e-003
 -1.4793817e-002 -2.5339112e-002
 -2.6784593e-002 -3.7938674e-002
 -3.5347446e-002 -4.5060641e-002
 -3.7197884e-002 -4.5525160e-002
 -3.1672660e-002 -4.0630164e-002
 -2.2364620e-002 -3.4059461e-002
 -1.5576204e-002 -3.0107393e-002
 -1.6364262e-002 -3.1203357e-002
 -2.5099666e-002 -3.6473046e-002
 -3.7196329e-002 -4.2420249e-002
 -4.6293256e-002 -4.5351331e-002
 -4.8567851e-002 -4.3843887e-002
 -4.4966217e-002 -3.9484440e-002
 -3.9810990e-002 -3.5356467e-002
 -3.7261094e-002 -3.3703123e-002
 -3.8338562e-002 -3.4433435e-002
 -4.0877034e-002 -3.5710486e-002
 -4.1967279e-002 -3.5815252e-002
 -4.0724437e-002 -3.4804090e-002
 -3.8968333e-002 -3.4483149e-002
 -3.9350821e-002 -3.6765874e-002
 -4.2701786e-002 -4.1805247e-002
 -4.6968890e-002 -4.7496705e-002
 -4.8727084e-002 -5.0834578e-002
 -4.5974470e-002 -5.0076129e-002
 -3.9821317e-002 -4.5978260e-002
 -3.3696006e-002 -4.1240197e-002
 -3.0806188e-002 -3.8695944e-002
 -3.1919328e-002 -3.9623150e-002
 -3.5245028e-002 -4.3326726e-002
 -3.8315649e-002 -4.8085722e-002
 -4.0096358e-002 -5.2456961e-002
 -4.1390913e-002 -5.5813965e-002
 -4.3377829e-002 -5.7960064e-002
 -4.5813331e-002 -5.8554366e-002
 -4.6830402e-002 -5.7230204e-002
 -4.4726381e-002 -5.4394347e-002
 -4.0143794e-002 -5.1754682e-002
 -3.6456202e-002 -5.1684656e-002
 -3.7572775e-002 -5.5579268e-002
 -4.4623100e-002 -6.2355779e-002
 -5.4348509e-002 -6.8592965e-002
 -6.0922489e-002 -7.0698703e-002
 -6.0118395e-002 -6.7642191e-002
 -5.2658138e-002 -6.2070416e-002
 -4.3911147e-002 -5.8572559e-002
 -3.9959201e-002 -6.0182670e-002
 -4.2998076e-002 -6.5791325e-002
 -4.9727178e-002 -7.0677213e-002
 -5.4092528e-002 -7.0091265e-002
 -5.2342233e-002 -6.3306809e-002
 -4.6195218e-002 -5.4809947e-002
 -4.1500876e-002 -5.1373448e-002
 -4.3287426e-002 -5.6901899e-002
 -5.1291694e-002 -6.9008717e-002
 -5.9718838e-002 -8.0164417e-002
 -6.1753669e-002 -8.2975118e-002
 -5.5208288e-002 -7.5708467e-002
 -4.4720397e-002 -6.3864078e-002
 -3.8450711e-002 -5.6378689e-002
 -4.1631579e-002 -5.9069496e-002
 -5.2113848e-002 -7.0161231e-002
 -6.1608581e-002 -8.1312708e-002
 -6.1932378e-002 -8.3501612e-002
 -5.1322990e-002 -7.3338554e-002
 -3.5895359e-002 -5.5173261e-002
 -2.4904540e-002 -3.7525210e-002
 -2.3586917e-002 -2.6768233e-002
 -2.9161451e-002 -2.2907270e-002
 -3.3184311e-002 -2.0538810e-002
 -2.8257000e-002 -1.3959336e-002
 -1.3735570e-002 -2.2760555e-003
  4.1972765e-003  9.6027807e-003
  1.7837252e-002  1.4660417e-002
  2.4061221e-002  9.0475206e-003
  2.5884863e-002 -5.3950229e-003
  2.8292603e-002 -2.3064809e-002
  3.2148465e-002 -3.9041589e-002
  3.1909711e-002 -5.2123873e-002
  1.9848424e-002 -6.4046203e-002
 -6.4145606e-003 -7.6021445e-002
 -3.9545333e-002 -8.6230678e-002
 -6.5902019e-002 -9.0961006e-002
 -7.4973614e-002 -8.8635345e-002
 -6.7578400e-002 -8.2887930e-002
 -5.5767243e-002 -8.0983842e-002
 -5.3587104e-002 -8.7933854e-002
 -6.5671923e-002 -1.0124100e-001
 -8.3194275e-002 -1.1156074e-001
 -9.1361366e-002 -1.1028573e-001
 -8.3272113e-002 -9.8798798e-002
 -6.8546803e-002 -9.0981576e-002
 -6.7854236e-002 -1.0423905e-001
 -9.5124560e-002 -1.4305562e-001
 -1.4018228e-001 -1.8679342e-001
 -1.6683647e-001 -1.9331045e-001
 -1.3203865e-001 -1.2070587e-001
 -1.6327130e-002  4.3510152e-002
  1.5467420e-001  2.6430754e-001
  3.1459154e-001  4.6633563e-001
  3.8779421e-001  5.6637060e-001
  3.3101291e-001  5.1482700e-001
  1.5967406e-001  3.2281580e-001
 -5.8013811e-002  5.8619371e-002
 -2.3641523e-001 -1.8490107e-001
 -3.1630925e-001 -3.3381721e-001
 -2.9134851e-001 -3.6355401e-001
 -2.0320977e-001 -3.0136426e-001
 -1.1133237e-001 -2.0289245e-001
 -5.7992264e-002 -1.1931362e-001
 -5.0036848e-002 -7.4546393e-002
 -6.5352433e-002 -6.2943516e-002
 -7.5408393e-002 -6.3888784e-002
 -6.6280284e-002 -6.0284973e-002
 -4.4583982e-002 -4.8494224e-002
 -2.7266032e-002 -3.5658338e-002
 -2.5651706e-002 -2.9751729e-002
 -3.6591548e-002 -3.1610511e-002
 -4.6394119e-002 -3.4715761e-002
 -4.2867696e-002 -3.1522217e-002
 -2.5134400e-002 -2.0104197e-002
 -3.7132282e-003 -5.5221121e-003
  8.3536233e-003  4.7146473e-003
  5.7920492e-003  6.9662457e-003
 -5.2704586e-003  4.2997467e-003
 -1.2559253e-002  3.8606808e-003
 -7.1750190e-003  1.1190030e-002
  1.0124760e-002  2.6074637e-002
  3.0441002e-002  4.3156876e-002
  4.4084227e-002  5.6353434e-002
  4.7764702e-002  6.3436073e-002
  4.6203466e-002  6.7230393e-002
  4.7651216e-002  7.2956437e-002
  5.7367523e-002  8.4110267e-002
  7.4343848e-002  1.0028505e-001
  9.3331473e-002  1.1836334e-001
  1.0992144e-001  1.3563694e-001
  1.2420869e-001  1.5202996e-001
  1.4016776e-001  1.6972502e-001
  1.6162664e-001  1.9059506e-001
  1.8843648e-001  2.1389632e-001
  2.1612170e-001  2.3626373e-001
  2.3919882e-001  2.5409131e-001
  2.5538114e-001  2.6628765e-001
  2.6704482e-001  2.7507227e-001
  2.7882480e-001  2.8407060e-001
  2.9318595e-001  2.9505612e-001
  3.0751880e-001  3.0582595e-001
  3.1512044e-001  3.1089071e-001
  3.0931520e-001  3.0454288e-001
  2.8776396e-001  2.8424785e-001
  2.5381780e-001  2.5203570e-001
  2.1427647e-001  2.1327257e-001
  1.7534665e-001  1.7380143e-001
  1.3975054e-001  1.3741174e-001
  1.0674411e-001  1.0502303e-001
  7.4545590e-002  7.5697505e-002
  4.2981521e-002  4.8385631e-002
  1.4296283e-002  2.3121622e-002
 -8.2345156e-003  1.0799546e-003
 -2.2585780e-002 -1.6196665e-002
 -2.9386261e-002 -2.7728439e-002
 -3.1486792e-002 -3.3628062e-002
 -3.2272069e-002 -3.5166866e-002
 -3.3917163e-002 -3.4397494e-002
 -3.6767519e-002 -3.3557917e-002
 -3.9890613e-002 -3.4318627e-002
 -4.2184244e-002 -3.7192029e-002
 -4.3210658e-002 -4.1379115e-002
 -4.3340009e-002 -4.5257210e-002
 -4.3418579e-002 -4.7397136e-002
 -4.4293489e-002 -4.7505963e-002
 -4.6441763e-002 -4.6587290e-002
 -4.9699205e-002 -4.6071903e-002
 -5.3149477e-002 -4.6494285e-002
 -5.5378364e-002 -4.6846088e-002
 -5.5086581e-002 -4.5202795e-002
 -5.1902232e-002 -4.0314077e-002
 -4.6924196e-002 -3.3066894e-002
 -4.2415950e-002 -2.6510888e-002
 -4.0616240e-002 -2.4150092e-002
 -4.2337097e-002 -2.7595141e-002
 -4.6293055e-002 -3.5212061e-002
 -4.9763464e-002 -4.2955280e-002
 -5.0299094e-002 -4.6927979e-002
 -4.7342044e-002 -4.5937611e-002
 -4.2663770e-002 -4.2243054e-002
 -3.9304740e-002 -3.9950130e-002
 -3.9637501e-002 -4.2102180e-002
 -4.3886707e-002 -4.8546286e-002
 -5.0044510e-002 -5.6034927e-002
 -5.5169435e-002 -6.0474953e-002
 -5.7159927e-002 -5.9698077e-002
 -5.5859446e-002 -5.4815189e-002
 -5.2902410e-002 -4.9344231e-002
 -5.0582454e-002 -4.6869011e-002
 -5.0483515e-002 -4.8844865e-002
 -5.2737733e-002 -5.4002286e-002
 -5.6130156e-002 -5.9486875e-002
 -5.8886792e-002 -6.2807917e-002
 -5.9625926e-002 -6.3203353e-002
 -5.8007863e-002 -6.1643255e-002
 -5.4934786e-002 -5.9867537e-002
 -5.2193328e-002 -5.9266608e-002
 -5.1600740e-002 -6.0304362e-002
 -5.4035920e-002 -6.2615541e-002
 -5.8823344e-002 -6.5408345e-002
 -6.3985911e-002 -6.7874526e-002
 -6.7290194e-002 -6.9360504e-002
 -6.7552869e-002 -6.9465348e-002
 -6.5330237e-002 -6.8186574e-002
 -6.2454775e-002 -6.6053647e-002
 -6.0637844e-002 -6.3996019e-002
 -6.0249806e-002 -6.2926647e-002
 -6.0227294e-002 -6.3263092e-002
 -5.9276132e-002 -6.4771833e-002
 -5.7377620e-002 -6.6827795e-002
 -5.6144512e-002 -6.8771376e-002
 -5.7609037e-002 -7.0176157e-002
 -6.2125900e-002 -7.0728151e-002
 -6.7347232e-002 -7.0125588e-002
 -6.9359424e-002 -6.8137062e-002
 -6.5637232e-002 -6.5074602e-002
 -5.7557215e-002 -6.2218271e-002
 -5.0231816e-002 -6.1478785e-002
 -4.9223704e-002 -6.4200055e-002
 -5.6248305e-002 -6.9765927e-002
 -6.7191416e-002 -7.5246225e-002
 -7.4281605e-002 -7.6700569e-002
 -7.1319794e-002 -7.1592985e-002
 -5.8342152e-002 -6.0746886e-002
 -4.2055324e-002 -4.8170485e-002
 -3.1378594e-002 -3.8558915e-002
 -3.1115515e-002 -3.4021162e-002
 -3.8443820e-002 -3.2523149e-002
 -4.4906788e-002 -2.9382516e-002
 -4.2560729e-002 -2.0962051e-002
 -2.9657490e-002 -7.8168511e-003
 -1.1552470e-002  5.1449441e-003
  3.7275412e-003  1.1772118e-002
  1.1685178e-002  8.8593939e-003
  1.4265463e-002 -1.6664563e-003
  1.6984193e-002 -1.4446213e-002
  2.2677468e-002 -2.4954563e-002
  2.7416983e-002 -3.2809429e-002
  2.2571855e-002 -4.1372669e-002
  1.8896185e-003 -5.4080049e-002
 -3.1943836e-002 -7.0509244e-002
 -6.7023030e-002 -8.5763108e-002
 -8.9344624e-002 -9.4008536e-002
 -9.2536023e-002 -9.3525039e-002
 -8.2530705e-002 -8.8754966e-002
 -7.3062908e-002 -8.7112603e-002
 -7.4947610e-002 -9.2661709e-002
 -8.7465604e-002 -1.0197792e-001
 -9.9256722e-002 -1.0654223e-001
 -9.8778352e-002 -1.0081441e-001
 -8.6134862e-002 -8.9566384e-002
 -7.5942379e-002 -8.7349241e-002
 -8.6688430e-002 -1.0772582e-001
 -1.2291168e-001 -1.4834132e-001
 -1.6376940e-001 -1.8309911e-001
 -1.6938064e-001 -1.7043839e-001
 -1.0453932e-001 -7.6606505e-002
  3.3941918e-002  9.8481522e-002
  2.0510837e-001  3.0978235e-001
  3.3805533e-001  4.8056518e-001
  3.6719145e-001  5.3673501e-001
  2.6879517e-001  4.4454315e-001
  7.6636916e-002  2.3028266e-001
 -1.3369041e-001 -3.0111082e-002
 -2.8316611e-001 -2.4664502e-001
 -3.2810753e-001 -3.5659612e-001
 -2.7737029e-001 -3.4938502e-001
 -1.7995122e-001 -2.6318851e-001
 -9.3062542e-002 -1.5812218e-001
 -5.1118729e-002 -8.3216909e-002
 -5.3384652e-002 -5.5878241e-002
 -7.4204817e-002 -6.2660500e-002
 -8.5519599e-002 -7.6545305e-002
 -7.5337246e-002 -7.7157684e-002
 -5.1354809e-002 -6.1249532e-002
 -3.0468661e-002 -3.9435954e-002
 -2.4172427e-002 -2.4635385e-002
 -3.0798413e-002 -2.1834706e-002
 -3.8885496e-002 -2.5916864e-002
 -3.7312799e-002 -2.7364677e-002
 -2.3700074e-002 -2.0248739e-002
 -5.0597529e-003 -6.2049569e-003
  8.6616700e-003  7.8991651e-003
  1.2269000e-002  1.5811022e-002
  8.3717248e-003  1.6445658e-002
  4.2517829e-003  1.3990216e-002
  5.8040092e-003  1.4275172e-002
  1.3640275e-002  2.0603260e-002
  2.3946794e-002  3.2053187e-002
  3.2772804e-002  4.5235991e-002
  3.9781587e-002  5.7504487e-002
  4.8306337e-002  6.8842530e-002
  6.2053644e-002  8.1292483e-002
  8.1501681e-002  9.6748673e-002
  1.0320861e-001  1.1521900e-001
  1.2248776e-001  1.3486882e-001
  1.3717950e-001  1.5354858e-001
  1.4941042e-001  1.7042305e-001
  1.6385068e-001  1.8632260e-001
  1.8398418e-001  2.0272142e-001
  2.0939818e-001  2.2035466e-001
  2.3617633e-001  2.3863285e-001
  2.5997075e-001  2.5625397e-001
  2.7911825e-001  2.7224551e-001
  2.9530793e-001  2.8637041e-001
  3.1126530e-001  2.9850227e-001
  3.2745036e-001  3.0764037e-001
  3.4051367e-001  3.1156469e-001
  3.4472938e-001  3.0753978e-001
  3.3553327e-001  2.9381173e-001
  3.1251047e-001  2.7074160e-001
  2.7963403e-001  2.4070263e-001
  2.4277127e-001  2.0685706e-001
  2.0640829e-001  1.7178184e-001
  1.7192824e-001  1.3692542e-001
  1.3842852e-001  1.0312574e-001
  1.0510689e-001  7.1517020e-002
  7.3087889e-002  4.3859850e-002
  4.5283318e-002  2.1885910e-002
  2.4438351e-002  6.1134062e-003
  1.1089910e-002 -4.8123011e-003
  3.1103022e-003 -1.3536065e-002
 -2.8424158e-003 -2.2418297e-002
 -9.0911418e-003 -3.2055584e-002
 -1.5693883e-002 -4.1014236e-002
 -2.1027019e-002 -4.7000621e-002
 -2.3575053e-002 -4.8577671e-002
 -2.3447947e-002 -4.6258731e-002
 -2.2404355e-002 -4.2192195e-002
 -2.2384966e-002 -3.8709298e-002
 -2.3902141e-002 -3.6879743e-002
 -2.5620363e-002 -3.6128633e-002
 -2.5577865e-002 -3.5189475e-002
 -2.3059089e-002 -3.3532409e-002
 -1.9521491e-002 -3.2036044e-002
 -1.7749379e-002 -3.2350137e-002
 -1.9824366e-002 -3.5483880e-002
 -2.5291467e-002 -4.0619611e-002
 -3.1159213e-002 -4.5286934e-002
 -3.3816298e-002 -4.6852442e-002
 -3.1544227e-002 -4.4349338e-002
 -2.5815899e-002 -3.9280231e-002
 -2.0331936e-002 -3.4746612e-002
 -1.8448741e-002 -3.3478492e-002
 -2.0854384e-002 -3.6155263e-002
 -2.5144123e-002 -4.1148521e-002
 -2.7665346e-002 -4.5831416e-002
 -2.6236748e-002 -4.8477650e-002
 -2.1831456e-002 -4.9386065e-002
 -1.7862697e-002 -5.0390092e-002
 -1.7665991e-002 -5.3186547e-002
 -2.2018424e-002 -5.7827225e-002
 -2.8577681e-002 -6.2568109e-002
 -3.3608970e-002 -6.5173106e-002
 -3.4697761e-002 -6.4652136e-002
 -3.2417987e-002 -6.2084090e-002
 -2.9684768e-002 -5.9802129e-002
 -2.9310834e-002 -5.9571402e-002
 -3.1685211e-002 -6.1148027e-002
 -3.4446101e-002 -6.2447294e-002
 -3.4455763e-002 -6.1314939e-002
 -3.0540546e-002 -5.7538423e-002
 -2.4778718e-002 -5.3414845e-002
 -2.1226403e-002 -5.2304863e-002
 -2.2912642e-002 -5.6097854e-002
 -2.9359494e-002 -6.3464968e-002
 -3.6567837e-002 -7.0336567e-002
 -3.9724188e-002 -7.2506106e-002
 -3.6665696e-002 -6.8614728e-002
 -2.9538720e-002 -6.1301358e-002
 -2.3313890e-002 -5.5505518e-002
 -2.2285300e-002 -5.5096601e-002
 -2.7118985e-002 -6.0205546e-002
 -3.4543146e-002 -6.7131904e-002
 -3.9878312e-002 -7.0957836e-002
 -4.0418676e-002 -6.8997646e-002
 -3.7119277e-002 -6.2607175e-002
 -3.3381671e-002 -5.6062802e-002
 -3.2123924e-002 -5.3424181e-002
 -3.3557573e-002 -5.5716669e-002
 -3.5466114e-002 -6.0553653e-002
 -3.5554988e-002 -6.4243030e-002
 -3.3732729e-002 -6.4660891e-002
 -3.2300496e-002 -6.2629434e-002
 -3.3790288e-002 -6.0833975e-002
 -3.8285688e-002 -6.1256134e-002
 -4.2713469e-002 -6.3306762e-002
 -4.2960997e-002 -6.4197734e-002
 -3.7331032e-002 -6.1242964e-002
 -2.8382923e-002 -5.4101796e-002
 -2.1329940e-002 -4.5010481e-002
 -2.0102875e-002 -3.6874639e-002
 -2.3981354e-002 -3.0735467e-002
 -2.7711322e-002 -2.4884879e-002
 -2.5209552e-002 -1.6496948e-002
 -1.4200704e-002 -4.5218113e-003
  2.0173646e-003  8.5858626e-003
  1.7081709e-002  1.7820300e-002
  2.6443154e-002  1.8828717e-002
  3.0612490e-002  1.0969676e-002
  3.3845909e-002 -2.3211796e-003
  3.9260297e-002 -1.6068189e-002
  4.4541930e-002 -2.7195488e-002
  4.2398286e-002 -3.6073112e-002
  2.6087634e-002 -4.5071876e-002
 -4.0154975e-003 -5.5496951e-002
 -3.8412459e-002 -6.5774003e-002
 -6.3640372e-002 -7.2757324e-002
 -7.1403964e-002 -7.5077963e-002
 -6.4806725e-002 -7.5327395e-002
 -5.6282953e-002 -7.8509534e-002
 -5.8107584e-002 -8.7424134e-002
 -7.2511889e-002 -9.8915899e-002
 -8.9517925e-002 -1.0501796e-001
 -9.5264509e-002 -9.9516225e-002
 -8.4933890e-002 -8.5390678e-002
 -6.9728896e-002 -7.6351381e-002
 -7.0420219e-002 -8.8688067e-002
 -9.9906182e-002 -1.2678731e-001
 -1.4708606e-001 -1.7228896e-001
 -1.7564312e-001 -1.8673751e-001
 -1.4263790e-001 -1.3020690e-001
 -2.7800547e-002  1.2615704e-002
  1.4530891e-001  2.1466130e-001
  3.1242684e-001  4.1023788e-001
  3.9785054e-001  5.2188180e-001
  3.5468668e-001  4.9760709e-001
  1.9234389e-001  3.3823820e-001
 -2.5951310e-002  9.8975359e-002
 -2.1507087e-001 -1.3631814e-001
 -3.1081420e-001 -2.9403025e-001
 -2.9906796e-001 -3.4190463e-001
 -2.1572871e-001 -2.9673661e-001
 -1.1994676e-001 -2.0708329e-001
 -5.9093815e-002 -1.2366285e-001
 -4.6656071e-002 -7.5143351e-002
 -6.3941678e-002 -6.1349647e-002
 -8.0275581e-002 -6.3811049e-002
 -7.5793355e-002 -6.3244217e-002
 -5.1896749e-002 -5.1942033e-002
 -2.5024401e-002 -3.4771245e-002
 -1.1193495e-002 -2.1189076e-002
 -1.3878443e-002 -1.6172938e-002
 -2.3421121e-002 -1.7009221e-002
 -2.6515080e-002 -1.7003658e-002
 -1.7143597e-002 -1.1816155e-002
 -3.6694838e-004 -2.7995859e-003
  1.3024173e-002  4.9494274e-003
  1.5884513e-002  7.6120574e-003
  1.0346291e-002  6.2320932e-003
  5.5703641e-003  5.9571354e-003
  1.0064483e-002  1.1836622e-002
  2.4964063e-002  2.4744531e-002
  4.3566052e-002  4.0817516e-002
  5.7135083e-002  5.4683407e-002
  6.2037887e-002  6.3741162e-002
  6.2512713e-002  7.0016360e-002
  6.7114995e-002  7.8273011e-002
  8.1923042e-002  9.2126642e-002
  1.0588251e-001  1.1127313e-001
  1.3184265e-001  1.3197445e-001
  1.5223641e-001  1.5021593e-001
  1.6484934e-001  1.6488970e-001
  1.7420886e-001  1.7837804e-001
  1.8781993e-001  1.9427808e-001
  2.1038864e-001  2.1425687e-001
  2.4050673e-001  2.3663164e-001
  2.7201552e-001  2.5769836e-001
  2.9866263e-001  2.7458165e-001
  3.1814551e-001  2.8714686e-001
  3.3249185e-001  2.9740537e-001
  3.4487002e-001  3.0699221e-001
  3.5566716e-001  3.1483401e-001
  3.6128313e-001  3.1717987e-001
  3.5649001e-001  3.0999786e-001
  3.3842896e-001  2.9193752e-001
  3.0893293e-001  2.6541180e-001
  2.7336128e-001  2.3497339e-001
  2.3701908e-001  2.0430257e-001
  2.0199519e-001  1.7414544e-001
  1.6691857e-001  1.4280931e-001
  1.2972780e-001  1.0884690e-001
  9.0969272e-002  7.3590150e-002
  5.4761161e-002  4.1330303e-002
  2.6551206e-002  1.6872789e-002
  9.3322274e-003  2.2042471e-003
  1.3866836e-003 -5.0263929e-003
 -2.6680362e-003 -1.0026803e-002
 -8.2115916e-003 -1.7317441e-002
 -1.7061549e-002 -2.7709338e-002
 -2.6726208e-002 -3.8043500e-002
 -3.2893051e-002 -4.3828247e-002
 -3.3186025e-002 -4.2785956e-002
 -2.9185369e-002 -3.6583777e-002
 -2.5232628e-002 -2.9535993e-002
 -2.5105037e-002 -2.5413179e-002
 -2.9225044e-002 -2.4900138e-002
 -3.4547767e-002 -2.5567983e-002
 -3.7171003e-002 -2.4316989e-002
 -3.5543434e-002 -2.0261999e-002
 -3.1711063e-002 -1.5736070e-002
 -2.9641277e-002 -1.4547319e-002
 -3.2027272e-002 -1.8869254e-002
 -3.8123598e-002 -2.7206672e-002
 -4.4344738e-002 -3.5140999e-002
 -4.7029201e-002 -3.8290815e-002
 -4.5196168e-002 -3.5334187e-002
 -4.1107191e-002 -2.8848076e-002
 -3.8295840e-002 -2.3410530e-002
 -3.8726274e-002 -2.2428689e-002
 -4.1350570e-002 -2.5972007e-002
 -4.3259403e-002 -3.1208883e-002
 -4.2337322e-002 -3.4869058e-002
 -3.9141433e-002 -3.5688702e-002
 -3.6388464e-002 -3.4973616e-002
 -3.6543267e-002 -3.5094545e-002
 -3.9510223e-002 -3.7277700e-002
 -4.2555968e-002 -4.0655442e-002
 -4.2584054e-002 -4.3214886e-002
 -3.9041914e-002 -4.3868076e-002
 -3.4821269e-002 -4.3608667e-002
 -3.4246929e-002 -4.4744408e-002
 -3.9513017e-002 -4.8697304e-002
 -4.8462750e-002 -5.4316750e-002
 -5.5729568e-002 -5.8333791e-002
 -5.6623470e-002 -5.7837256e-002
 -5.0798992e-002 -5.2842746e-002
 -4.2820816e-002 -4.6861206e-002
 -3.8876383e-002 -4.4681677e-002
 -4.1985620e-002 -4.8841823e-002
 -4.9436003e-002 -5.7457886e-002
 -5.4666502e-002 -6.5290491e-002
 -5.2358170e-002 -6.7431646e-002
 -4.2860354e-002 -6.2921822e-002
 -3.2424474e-002 -5.5548450e-002
 -2.8826766e-002 -5.1135054e-002
 -3.5461816e-002 -5.3254131e-002
 -4.8486097e-002 -6.0622548e-002
 -5.9295562e-002 -6.8105730e-002
 -6.0741418e-002 -7.0686983e-002
 -5.2416545e-002 -6.7293561e-002
 -4.0950871e-002 -6.1522405e-002
 -3.5028930e-002 -5.8673839e-002
 -3.8887527e-002 -6.1421600e-002
 -4.9195506e-002 -6.7500314e-002
 -5.7727769e-002 -7.1256310e-002
 -5.7714459e-002 -6.7853384e-002
 -4.8935184e-002 -5.6870139e-002
 -3.7538358e-002 -4.2446321e-002
 -3.0839597e-002 -2.9945372e-002
 -3.1238686e-002 -2.1796773e-002
 -3.4236695e-002 -1.5959348e-002
 -3.2162256e-002 -8.2623904e-003
 -2.0644424e-002  3.2989471e-003
 -2.5184033e-003  1.5941813e-002
  1.4101279e-002  2.3479578e-002
  2.2087867e-002  2.0760568e-002
  2.0877110e-002  7.7444962e-003
  1.6570912e-002 -1.0147819e-002
  1.6292926e-002 -2.5839332e-002
  2.1356447e-002 -3.5606600e-002
  2.5190937e-002 -4.1262398e-002
  1.8283051e-002 -4.7592159e-002
 -3.5369267e-003 -5.7452107e-002
 -3.4210346e-002 -6.8743231e-002
 -6.0526595e-002 -7.6079039e-002
 -7.1468515e-002 -7.5976605e-002
 -6.6800105e-002 -7.1137761e-002
 -5.7620331e-002 -6.9431695e-002
 -5.7698343e-002 -7.7606862e-002
 -7.1826755e-002 -9.4412963e-002
 -9.0959329e-002 -1.0966873e-001
 -9.9001372e-002 -1.1147364e-001
 -8.7038331e-002 -9.7150705e-002
 -6.3776200e-002 -7.9009796e-002
 -5.2279039e-002 -7.8261973e-002
 -7.2684667e-002 -1.0857625e-001
 -1.2231573e-001 -1.5985075e-001
 -1.6870963e-001 -1.9499097e-001
 -1.6442401e-001 -1.6617291e-001
 -7.7299313e-002 -4.3905793e-002
  8.2458187e-002  1.5798755e-001
  2.5778652e-001  3.7865064e-001
  3.6937665e-001  5.3357661e-001
  3.5729711e-001  5.5458388e-001
  2.1546433e-001  4.2483083e-001
 -2.3330855e-003  1.8887742e-001
 -2.0929617e-001 -6.8262346e-002
 -3.2997307e-001 -2.6152176e-001
 -3.3623615e-001 -3.4332726e-001
 -2.5512426e-001 -3.1883845e-001
 -1.4648081e-001 -2.3343757e-001
 -6.6419466e-002 -1.4288563e-001
 -3.9171044e-002 -8.4805647e-002
 -5.2280859e-002 -6.6323541e-002
 -7.3871547e-002 -7.1034952e-002
 -7.7510279e-002 -7.6754484e-002
 -5.7707442e-002 -7.0883437e-002
 -2.8165093e-002 -5.4817256e-002
 -7.4751999e-003 -3.7829335e-002
 -4.5319016e-003 -2.7497138e-002
 -1.3858136e-002 -2.4325146e-002
 -2.2240739e-002 -2.3221273e-002
 -1.9872884e-002 -1.8989030e-002
 -7.0790978e-003 -1.0604036e-002
  7.7499017e-003 -1.0369970e-003
  1.6012645e-002  6.3267548e-003
  1.5645518e-002  1.0907984e-002
  1.1792679e-002  1.5103350e-002
  1.1650066e-002  2.1504447e-002
  1.8432933e-002  3.0142952e-002
  2.9370967e-002  3.8367851e-002
  3.8899607e-002  4.3533161e-002
  4.3985469e-002  4.6174890e-002
  4.6860697e-002  5.0622468e-002
  5.3089048e-002  6.2223874e-002
  6.6772201e-002  8.3133337e-002
  8.7101794e-002  1.1005329e-001
  1.0907722e-001  1.3591332e-001
  1.2766093e-001  1.5440043e-001
  1.4181879e-001  1.6407661e-001
  1.5523498e-001  1.6919767e-001
  1.7312275e-001  1.7667919e-001
  1.9784418e-001  1.9148181e-001
  2.2691111e-001  2.1370894e-001
  2.5493197e-001  2.3926129e-001
  2.7771928e-001  2.6308456e-001
  2.9518628e-001  2.8235916e-001
  3.1051502e-001  2.9716920e-001
  3.2646345e-001  3.0863815e-001
  3.4181878e-001  3.1637751e-001
  3.5106395e-001  3.1759507e-001
  3.4768553e-001  3.0865603e-001
  3.2869663e-001  2.8789623e-001
  2.9687765e-001  2.5733558e-001
  2.5901363e-001  2.2185449e-001
  2.2153134e-001  1.8643965e-001
  1.8689448e-001  1.5358000e-001
  1.5341866e-001  1.2278924e-001
  1.1839015e-001  9.2398099e-002
  8.1813638e-002  6.2072487e-002
  4.7649851e-002  3.3927408e-002
  2.1502219e-002  1.1377054e-002
  6.4639046e-003 -3.4686238e-003
  5.1188213e-004 -1.1636290e-002
 -2.4076698e-003 -1.6846138e-002
 -8.2788495e-003 -2.2997275e-002
 -1.8961849e-002 -3.1463575e-002
 -3.1126894e-002 -4.0225575e-002
 -3.9072771e-002 -4.5563221e-002
 -3.9147368e-002 -4.4965352e-002
 -3.2590644e-002 -3.9180509e-002
 -2.4671457e-002 -3.1853935e-002
 -2.0872256e-002 -2.7029857e-002
 -2.3098491e-002 -2.6424536e-002
 -2.8718421e-002 -2.8470712e-002
 -3.3067870e-002 -2.9839200e-002
 -3.3278218e-002 -2.8158563e-002
 -3.0437066e-002 -2.3883852e-002
 -2.8437266e-002 -1.9933284e-002
 -3.0520225e-002 -1.9419370e-002
 -3.6281174e-002 -2.3209147e-002
 -4.1643801e-002 -2.9155244e-002
 -4.1918381e-002 -3.3636387e-002
 -3.5666507e-002 -3.4229057e-002
 -2.6232794e-002 -3.1429165e-002
 -1.9666388e-002 -2.8178769e-002
 -2.0393348e-002 -2.7553057e-002
 -2.7849393e-002 -3.0420906e-002
 -3.6646642e-002 -3.4845897e-002
 -4.0308816e-002 -3.7716225e-002
 -3.5942742e-002 -3.7350153e-002
 -2.6382641e-002 -3.5013264e-002
 -1.8260879e-002 -3.4112620e-002
 -1.7285871e-002 -3.7512479e-002
 -2.4211687e-002 -4.5050821e-002
 -3.4385585e-002 -5.3232080e-002
 -4.1159836e-002 -5.7488783e-002
 -4.0657430e-002 -5.5484303e-002
 -3.4412436e-002 -4.9085653e-002
 -2.8002341e-002 -4.3372557e-002
 -2.6791188e-002 -4.3240755e-002
 -3.2023112e-002 -4.9929286e-002
 -4.0201828e-002 -6.0024269e-002
 -4.6051436e-002 -6.7715596e-002
 -4.6653001e-002 -6.8759925e-002
 -4.3541763e-002 -6.3345418e-002
 -4.1138796e-002 -5.5839912e-002
 -4.2879578e-002 -5.1643330e-002
 -4.8179978e-002 -5.3434750e-002
 -5.2778156e-002 -5.9540580e-002
 -5.2271763e-002 -6.5556888e-002
 -4.6052862e-002 -6.7926524e-002
 -3.8333647e-002 -6.6650589e-002
 -3.5201471e-002 -6.5056807e-002
 -3.9813933e-002 -6.6837617e-002
 -4.9503952e-002 -7.2710072e-002
 -5.7214238e-002 -7.9289371e-002
 -5.6525503e-002 -8.1210557e-002
 -4.6544274e-002 -7.4933956e-002
 -3.2965707e-002 -6.1490223e-002
 -2.4198701e-002 -4.5945739e-002
 -2.5245442e-002 -3.3962671e-002
 -3.3927456e-002 -2.8023433e-002
 -4.2172099e-002 -2.6022216e-002
 -4.1534406e-002 -2.3276185e-002
 -2.8827025e-002 -1.6280673e-002
 -7.9531935e-003 -5.5648243e-003
  1.3202007e-002  4.4673348e-003
  2.8111590e-002  8.3966701e-003
  3.5013570e-002  3.1691559e-003
  3.6075440e-002 -1.0321297e-002
  3.3642498e-002 -2.8211312e-002
  2.7312743e-002 -4.6010427e-002
  1.4631126e-002 -6.0419271e-002
 -5.2859991e-003 -6.9770793e-002
 -2.8765248e-002 -7.3664815e-002
 -4.8601219e-002 -7.2907728e-002
 -5.9045294e-002 -7.0040069e-002
 -6.0873524e-002 -6.9413128e-002
 -6.1707204e-002 -7.5505234e-002
 -7.0178189e-002 -8.9509719e-002
 -8.8048901e-002 -1.0673098e-001
 -1.0694913e-001 -1.1778548e-001
 -1.1387099e-001 -1.1463019e-001
 -1.0243481e-001 -9.8122562e-002
 -8.1283858e-002 -8.1118505e-002
 -7.1218680e-002 -8.2361159e-002
 -9.0387997e-002 -1.1261740e-001
 -1.3653965e-001 -1.6121296e-001
 -1.7999147e-001 -1.9353537e-001
 -1.7597668e-001 -1.6515259e-001
 -9.2183567e-002 -4.7915392e-002
  6.4799859e-002  1.4648061e-001
  2.4268280e-001  3.6131870e-001
  3.6442301e-001  5.1509006e-001
  3.6763315e-001  5.3917538e-001
  2.4003839e-001  4.1329371e-001
  2.9258020e-002  1.7850925e-001
 -1.8032987e-001 -8.0770109e-002
 -3.1075850e-001 -2.7658757e-001
 -3.2862875e-001 -3.5734953e-001
 -2.5666809e-001 -3.2658433e-001
 -1.5384452e-001 -2.3218169e-001
 -7.8283155e-002 -1.3495002e-001
 -5.6393359e-002 -7.6191794e-002
 -7.5552392e-002 -6.2254151e-002
 -1.0120487e-001 -7.1716548e-002
 -1.0400901e-001 -7.6740797e-002
 -7.8191592e-002 -6.2837595e-002
 -4.0718352e-002 -3.5187708e-002
 -1.5123037e-002 -1.0265421e-002
 -1.3510455e-002 -1.3961512e-003
 -2.9619196e-002 -9.2701304e-003
 -4.6096995e-002 -2.3246222e-002
 -4.8728298e-002 -3.0590707e-002
 -3.6265448e-002 -2.5719104e-002
 -1.9207528e-002 -1.2730065e-002
 -9.8712640e-003 -4.5863108e-004
 -1.2301561e-002  5.2243196e-003
 -1.9754320e-002  5.5420546e-003
 -2.0948730e-002  6.7777087e-003
 -9.3915596e-003  1.4501819e-002
  1.1743004e-002  2.9033274e-002
  3.2619916e-002  4.5603327e-002
  4.4653870e-002  5.8568742e-002
  4.6885545e-002  6.5981983e-002
  4.5998589e-002  7.0802710e-002
  5.0466458e-002  7.8070484e-002
  6.3974438e-002  9.0746056e-002
  8.3276316e-002  1.0767393e-001
  1.0175721e-001  1.2509494e-001
  1.1540011e-001  1.4019498e-001
  1.2615831e-001  1.5359469e-001
  1.4014561e-001  1.6872918e-001
  1.6238726e-001  1.8877851e-001
  1.9251374e-001  2.1372725e-001
  2.2482328e-001  2.3997610e-001
  2.5241046e-001  2.6269493e-001
  2.7189599e-001  2.7896273e-001
  2.8489928e-001  2.8908583e-001
  2.9536585e-001  2.9528389e-001
  3.0519699e-001  2.9900378e-001
  3.1183031e-001  2.9913649e-001
  3.0967910e-001  2.9253171e-001
  2.9420462e-001  2.7631038e-001
  2.6528679e-001  2.5006241e-001
  2.2734672e-001  2.1623329e-001
  1.8640853e-001  1.7866294e-001
  1.4671200e-001  1.4073005e-001
  1.0947416e-001  1.0453883e-001
  7.4365654e-002  7.1450437e-002
  4.1910685e-002  4.2953130e-002
  1.4388806e-002  2.0600381e-002
 -5.6262486e-003  4.9221522e-003
 -1.7699660e-002 -5.6578777e-003
 -2.4584547e-002 -1.4506774e-002
 -3.0592486e-002 -2.4736963e-002
 -3.8538774e-002 -3.6855602e-002
 -4.7791068e-002 -4.8109809e-002
 -5.5178023e-002 -5.4439795e-002
 -5.8051360e-002 -5.3762987e-002
 -5.6917367e-002 -4.8073222e-002
 -5.5321403e-002 -4.2502391e-002
 -5.6963831e-002 -4.1822104e-002
 -6.2377685e-002 -4.6901133e-002
 -6.8160077e-002 -5.3969005e-002
 -6.9628979e-002 -5.7470738e-002
 -6.4894517e-002 -5.4438492e-002
 -5.6920650e-002 -4.6963697e-002
 -5.1614699e-002 -4.0690915e-002
 -5.3229797e-002 -4.0402874e-002
 -6.0751816e-002 -4.6141111e-002
 -6.8274987e-002 -5.2939007e-002
 -6.9389449e-002 -5.4555201e-002
 -6.2357536e-002 -4.8506692e-002
 -5.1882717e-002 -3.8382060e-002
 -4.5826690e-002 -3.1432855e-002
 -4.9245955e-002 -3.3201680e-002
 -6.0365922e-002 -4.3225045e-002
 -7.1642749e-002 -5.5157772e-002
 -7.5280514e-002 -6.1343048e-002
 -6.9015574e-002 -5.8387825e-002
 -5.7756533e-002 -4.9583219e-002
 -4.9785159e-002 -4.2316357e-002
 -5.0448174e-002 -4.2495582e-002
 -5.8303006e-002 -5.0285867e-002
 -6.6593669e-002 -6.0349863e-002
 -6.8852007e-002 -6.6266976e-002
 -6.4100361e-002 -6.5537804e-002
 -5.7512269e-002 -6.1206902e-002
 -5.6094533e-002 -5.9003104e-002
 -6.2859785e-002 -6.2375784e-002
 -7.4202436e-002 -6.9534578e-002
 -8.2545410e-002 -7.4895166e-002
 -8.2235359e-002 -7.3793226e-002
 -7.3956261e-002 -6.6639252e-002
 -6.4204799e-002 -5.9041646e-002
 -6.0242744e-002 -5.7612663e-002
 -6.4607282e-002 -6.4781096e-002
 -7.3436828e-002 -7.6648336e-002
 -7.9778077e-002 -8.5636181e-002
 -7.9109886e-002 -8.5983237e-002
 -7.2683818e-002 -7.7941247e-002
 -6.6114978e-002 -6.7471879e-002
 -6.4614889e-002 -6.1779638e-002
 -6.8875320e-002 -6.4110361e-002
 -7.4917967e-002 -7.1772452e-002
 -7.7855631e-002 -7.8678685e-002
 -7.6149156e-002 -8.0172461e-002
 -7.2703100e-002 -7.6275168e-002
 -7.1976564e-002 -7.1079679e-002
 -7.5689150e-002 -6.9034271e-002
 -8.0949115e-002 -7.1301438e-002
 -8.2553113e-002 -7.5026620e-002
 -7.7604791e-002 -7.5899830e-002
 -6.8358636e-002 -7.1579442e-002
 -6.0640050e-002 -6.3108898e-002
 -5.8938483e-002 -5.3354322e-002
 -6.2310847e-002 -4.4158284e-002
 -6.4739444e-002 -3.4999819e-002
 -5.9842988e-002 -2.4253463e-002
 -4.6219826e-002 -1.1927560e-002
 -2.8802356e-002 -1.0970706e-003
 -1.4887992e-002  3.6104974e-003
 -8.0692769e-003 -5.0587822e-004
 -5.3618536e-003 -1.1702177e-002
 -4.5853102e-004 -2.4711809e-002
  9.3294378e-003 -3.4679501e-002
  1.8525924e-002 -4.0869584e-002
  1.5967573e-002 -4.6968865e-002
 -6.5560810e-003 -5.7429762e-002
 -4.6084271e-002 -7.2864336e-002
 -8.7797285e-002 -8.8579713e-002
 -1.1374737e-001 -9.7905824e-002
 -1.1527048e-001 -9.7958124e-002
 -9.9566861e-002 -9.2775465e-002
 -8.4666193e-002 -9.0566860e-002
 -8.5843739e-002 -9.6735116e-002
 -1.0370958e-001 -1.0843494e-001
 -1.2390243e-001 -1.1620890e-001
 -1.2944978e-001 -1.1250592e-001
 -1.1653210e-001 -1.0064211e-001
 -1.0038310e-001 -9.5728863e-002
 -1.0442159e-001 -1.1398889e-001
 -1.3882272e-001 -1.5615852e-001
 -1.8471899e-001 -1.9733806e-001
 -1.9860651e-001 -1.9405252e-001
 -1.3827125e-001 -1.0846264e-001
  4.9739499e-003  6.3361225e-002
  1.9000939e-001  2.7758896e-001
  3.3972590e-001  4.5543299e-001
  3.8016006e-001  5.1913094e-001
  2.8244553e-001  4.3219318e-001
  8.1652835e-002  2.2068596e-001
 -1.4013193e-001 -3.7737490e-002
 -2.9689606e-001 -2.5153242e-001
 -3.4209178e-001 -3.5837063e-001
 -2.8720530e-001 -3.5003255e-001
 -1.8658003e-001 -2.6700728e-001
 -1.0093505e-001 -1.6928529e-001
 -6.3638296e-002 -1.0261884e-001
 -6.9372731e-002 -7.9764039e-002
 -8.8354297e-002 -8.4487175e-002
 -9.2402043e-002 -9.1097345e-002
 -7.3812001e-002 -8.4134062e-002
 -4.5758668e-002 -6.5681922e-002
 -2.7505609e-002 -4.8445141e-002
 -2.7839689e-002 -4.2674410e-002
 -3.9212489e-002 -4.7676753e-002
 -4.5578668e-002 -5.3540261e-002
 -3.6143681e-002 -5.0220351e-002
 -1.3643823e-002 -3.5759450e-002
  8.7303956e-003 -1.7364361e-002
  1.8374030e-002 -5.1967180e-003
  1.3066900e-002 -4.2621078e-003
  2.0543409e-003 -1.0852658e-002
 -1.7400705e-003 -1.5857006e-002
  8.3070605e-003 -1.1821427e-002
  2.8111128e-002  1.8286912e-003
  4.7081468e-002  1.9201201e-002
  5.6917986e-002  3.3085148e-002
  5.7894158e-002  4.0503125e-002
  5.7983140e-002  4.4445756e-002
  6.6113077e-002  5.0926368e-002
  8.5278914e-002  6.4134314e-002
  1.1089367e-001  8.3588067e-002
  1.3510551e-001  1.0513318e-001
  1.5321646e-001  1.2452277e-001
  1.6697963e-001  1.4052389e-001
  1.8242950e-001  1.5520039e-001
  2.0442030e-001  1.7153551e-001
  2.3252528e-001  1.9065726e-001
  2.6145805e-001  2.1096876e-001
  2.8536520e-001  2.2963161e-001
  3.0218247e-001  2.4485132e-001
  3.1455708e-001  2.5690652e-001
  3.2686545e-001  2.6719312e-001
  3.4093819e-001  2.7619353e-001
  3.5400008e-001  2.8218170e-001
  3.6030570e-001  2.8175752e-001
  3.5495885e-001  2.7181067e-001
  3.3672379e-001  2.5130769e-001
  3.0793896e-001  2.2170751e-001
  2.7210299e-001  1.8592752e-001
  2.3166454e-001  1.4702880e-001
  1.8795862e-001  1.0764354e-001
  1.4298696e-001  7.0228484e-002
  1.0087583e-001  3.7308546e-002
  6.7112405e-002  1.1007811e-002
  4.5537988e-002 -8.0661550e-003
  3.5453013e-002 -2.1548347e-002
  3.1375889e-002 -3.2679570e-002
  2.6251149e-002 -4.4258791e-002
  1.5966610e-002 -5.6626089e-002
  1.9696425e-003 -6.7265304e-002
 -1.0092112e-002 -7.2633799e-002
 -1.4727876e-002 -7.1033010e-002
 -1.0731539e-002 -6.4338515e-002
 -2.1732653e-003 -5.7248387e-002
  4.4549231e-003 -5.4363236e-002
  4.7102991e-003 -5.7137592e-002
 -1.0253684e-003 -6.2957680e-002
 -8.3049200e-003 -6.7045442e-002
 -1.2161723e-002 -6.5895004e-002
 -1.0618084e-002 -5.9730810e-002
 -5.7150583e-003 -5.2300778e-002
 -1.6627067e-003 -4.8278831e-002
 -1.7427718e-003 -5.0191053e-002
 -6.2412184e-003 -5.6934162e-002
 -1.2651917e-002 -6.4723991e-002
 -1.7619084e-002 -6.9635297e-002
 -1.9029213e-002 -6.9886069e-002
 -1.6816832e-002 -6.6433685e-002
 -1.2512738e-002 -6.1952834e-002
 -8.2176230e-003 -5.9147369e-002
 -5.8046962e-003 -5.9555661e-002
 -6.4765388e-003 -6.3235510e-002
 -1.0413466e-002 -6.9026966e-002
 -1.6409214e-002 -7.4965889e-002
 -2.1941459e-002 -7.8822209e-002
 -2.4117135e-002 -7.8831635e-002
 -2.1377939e-002 -7.4688753e-002
 -1.4930476e-002 -6.8207249e-002
 -8.5876537e-003 -6.2896709e-002
 -6.6182669e-003 -6.2171304e-002
 -1.0818302e-002 -6.7068495e-002
 -1.8962902e-002 -7.5124106e-002
 -2.6039210e-002 -8.1528983e-002
 -2.7691930e-002 -8.2179971e-002
 -2.3455456e-002 -7.6635991e-002
 -1.7363030e-002 -6.8851699e-002
 -1.5162532e-002 -6.4796163e-002
 -2.0061977e-002 -6.8393607e-002
 -3.0162699e-002 -7.8593617e-002
 -3.9609894e-002 -8.9786079e-002
 -4.2674256e-002 -9.5423685e-002
 -3.7770156e-002 -9.2350339e-002
 -2.8466519e-002 -8.2883371e-002
 -2.0766328e-002 -7.3115929e-002
 -1.8824693e-002 -6.8759150e-002
 -2.2336316e-002 -7.1490873e-002
 -2.7388435e-002 -7.8227195e-002
 -2.9859771e-002 -8.3715440e-002
 -2.8532326e-002 -8.4308083e-002
 -2.5479871e-002 -8.0156522e-002
 -2.3718051e-002 -7.4458137e-002
 -2.4458043e-002 -7.0788037e-002
 -2.6300356e-002 -7.0648307e-002
 -2.6989688e-002 -7.3008702e-002
 -2.5902150e-002 -7.5760450e-002
 -2.4852708e-002 -7.7534849e-002
 -2.6280352e-002 -7.8332011e-002
 -3.0399549e-002 -7.8639283e-002
 -3.4092012e-002 -7.8176509e-002
 -3.2967847e-002 -7.5714672e-002
 -2.5239416e-002 -7.0249535e-002
 -1.4048672e-002 -6.2330435e-002
 -5.7977340e-003 -5.4039080e-002
 -5.3711069e-003 -4.7393611e-002
 -1.1723168e-002 -4.2330632e-002
 -1.7748131e-002 -3.6292138e-002
 -1.5007876e-002 -2.6121355e-002
 -5.2152391e-005 -1.1123553e-002
  2.2570037e-002  5.2047884e-003
  4.3217684e-002  1.6559385e-002
  5.3978553e-002  1.7704030e-002
  5.4085589e-002  8.0579868e-003
  4.9598160e-002 -7.7771797e-003
  4.7582852e-002 -2.3074451e-002
  4.9527360e-002 -3.3424982e-002
  4.9569676e-002 -3.9204997e-002
  3.9330949e-002 -4.4282590e-002
  1.5649857e-002 -5.2122582e-002
 -1.5366200e-002 -6.2660900e-002
 -4.1762866e-002 -7.2569517e-002
 -5.4498644e-002 -7.8644192e-002
 -5.4362932e-002 -8.1025986e-002
 -5.1149999e-002 -8.3053388e-002
 -5.5131450e-002 -8.7692964e-002
 -6.7728131e-002 -9.3754922e-002
 -7.9523924e-002 -9.5905372e-002
 -7.8535322e-002 -8.9750834e-002
 -6.2734157e-002 -7.8324255e-002
 -4.5923166e-002 -7.3548654e-002
 -4.9752902e-002 -8.8917978e-002
 -8.5242029e-002 -1.2634534e-001
 -1.3712433e-001 -1.6648998e-001
 -1.6493705e-001 -1.7196394e-001
 -1.2469709e-001 -1.0570623e-001
  1.4872939e-004  4.4004806e-002
  1.7890918e-001  2.4725067e-001
  3.4080047e-001  4.3754943e-001
  4.0874756e-001  5.3930435e-001
  3.4148201e-001  5.0444894e-001
  1.5862552e-001  3.3814646e-001
 -6.7414273e-002  9.8331456e-002
 -2.4868039e-001 -1.3130817e-001
 -3.2613180e-001 -2.8011472e-001
 -2.9552312e-001 -3.1998736e-001
 -2.0120899e-001 -2.7080545e-001
 -1.0456297e-001 -1.8157598e-001
 -4.8448429e-002 -1.0084797e-001
 -3.9097715e-002 -5.4132916e-002
 -5.3255990e-002 -3.9226079e-002
 -6.1436798e-002 -3.7980464e-002
 -4.9421482e-002 -3.3522721e-002
 -2.4199115e-002 -2.1027168e-002
 -3.4100734e-003 -6.7550590e-003
  9.3348768e-004  8.5060765e-004
 -8.4861304e-003 -4.1555319e-004
 -1.8262784e-002 -5.0209558e-003
 -1.6273263e-002 -4.9391678e-003
 -1.2916235e-003  3.5450819e-003
  1.7058012e-002  1.7156562e-002
  2.7094987e-002  2.8827192e-002
  2.4812468e-002  3.3623257e-002
  1.6760214e-002  3.2513692e-002
  1.4225681e-002  3.1184543e-002
  2.3908452e-002  3.5248508e-002
  4.2870785e-002  4.6045810e-002
  6.1558361e-002  6.0262639e-002
  7.2003403e-002  7.3246384e-002
  7.4315558e-002  8.2965639e-002
  7.6281582e-002  9.1306626e-002
  8.6634342e-002  1.0185406e-001
  1.0775887e-001  1.1639818e-001
  1.3375992e-001  1.3324121e-001
  1.5543441e-001  1.4879483e-001
  1.6801164e-001  1.6102635e-001
  1.7533505e-001  1.7170048e-001
  1.8704569e-001  1.8530720e-001
  2.1092926e-001  2.0537027e-001
  2.4653894e-001  2.3116630e-001
  2.8507562e-001  2.5763378e-001
  3.1556163e-001  2.7869083e-001
  3.3250479e-001  2.9145030e-001
  3.3925210e-001  2.9813781e-001
  3.4456591e-001  3.0406731e-001
  3.5527525e-001  3.1321637e-001
  3.7064909e-001  3.2467482e-001
  3.8269563e-001  3.3274209e-001
  3.8181720e-001  3.3052239e-001
  3.6332565e-001  3.1434658e-001
  3.3004601e-001  2.8587844e-001
  2.8951840e-001  2.5061256e-001
  2.4855749e-001  2.1424145e-001
  2.0957644e-001  1.7968684e-001
  1.7122435e-001  1.4682626e-001
  1.3218321e-001  1.1465565e-001
  9.4420317e-002  8.3703302e-002
  6.2860131e-002  5.6501287e-002
  4.1803090e-002  3.5809667e-002
  3.1233388e-002  2.2287086e-002
  2.6296320e-002  1.3708932e-002
  2.0656341e-002  6.5330281e-003
  1.1126933e-002 -1.4063924e-003
 -1.6024159e-004 -9.3530043e-003
 -7.7647850e-003 -1.4442198e-002
 -7.6586412e-003 -1.4377701e-002
 -8.0544918e-004 -9.6798110e-003
  7.2239592e-003 -3.6531861e-003
  1.0307634e-002 -2.5897678e-005
  6.2577175e-003 -1.8047482e-004
 -1.8620146e-003 -2.2918393e-003
 -8.4550357e-003 -3.0528569e-003
 -9.9218038e-003 -6.1608789e-004
 -7.3821708e-003  3.6368098e-003
 -5.4198191e-003  6.0629949e-003
 -7.9622854e-003  3.8116826e-003
 -1.4741599e-002 -2.4925017e-003
 -2.1285180e-002 -8.7294846e-003
 -2.2467671e-002 -1.0143151e-002
 -1.6732226e-002 -4.9992762e-003
 -7.5841944e-003  3.7777738e-003
 -1.1115351e-003  1.0331453e-002
 -1.4484145e-003  9.8594085e-003
 -7.7575389e-003  1.9462805e-003
 -1.5001353e-002 -9.1032367e-003
 -1.7945143e-002 -1.7297544e-002
 -1.5113863e-002 -1.9003414e-002
 -9.6540992e-003 -1.5151925e-002
 -6.5870384e-003 -1.0144999e-002
 -8.7469476e-003 -8.4928524e-003
 -1.4714852e-002 -1.1772063e-002
 -2.0228542e-002 -1.8001644e-002
 -2.1789864e-002 -2.3586781e-002
 -1.9428117e-002 -2.6099324e-002
 -1.6432189e-002 -2.5756168e-002
 -1.6379515e-002 -2.4643017e-002
 -2.0057926e-002 -2.4628583e-002
 -2.4900151e-002 -2.5866125e-002
 -2.7359398e-002 -2.7043718e-002
 -2.6141502e-002 -2.6939892e-002
 -2.3413792e-002 -2.5719100e-002
 -2.2972546e-002 -2.4840328e-002
 -2.6866508e-002 -2.5668810e-002
 -3.3343635e-002 -2.8088690e-002
 -3.8030782e-002 -3.0452643e-002
 -3.7585221e-002 -3.1074446e-002
 -3.2653380e-002 -2.9823264e-002
 -2.7718501e-002 -2.8475653e-002
 -2.7599149e-002 -2.9202374e-002
 -3.3464219e-002 -3.2528428e-002
 -4.1607311e-002 -3.6510667e-002
 -4.6194197e-002 -3.8072142e-002
 -4.3903888e-002 -3.5583259e-002
 -3.6848687e-002 -3.0664570e-002
 -3.1166959e-002 -2.7440991e-002
 -3.2277206e-002 -2.9570480e-002
 -4.0404116e-002 -3.7094806e-002
 -5.0083294e-002 -4.5754517e-002
 -5.4111086e-002 -4.9424946e-002
 -4.8998180e-002 -4.4136616e-002
 -3.7640137e-002 -3.0716614e-002
 -2.7073911e-002 -1.4151116e-002
 -2.2990370e-002 -1.1378323e-004
 -2.5326798e-002  8.7105505e-003
 -2.8325167e-002  1.3878287e-002
 -2.5085624e-002  1.9094653e-002
 -1.2938380e-002  2.6629200e-002
  4.6050601e-003  3.5148176e-002
  2.0692623e-002  4.0577936e-002
  3.0236990e-002  3.9175200e-002
  3.3026228e-002  3.0293277e-002
  3.2421422e-002  1.6711653e-002
  3.0964232e-002  2.4366334e-003
  2.7118917e-002 -9.9910863e-003
  1.6275795e-002 -2.0517676e-002
 -4.4412549e-003 -3.0235341e-002
 -3.1888832e-002 -3.9340227e-002
 -5.7329289e-002 -4.6551514e-002
 -7.2181733e-002 -5.0753953e-002
 -7.4645398e-002 -5.3112483e-002
 -7.1561063e-002 -5.7027717e-002
 -7.3114786e-002 -6.5214020e-002
 -8.4046964e-002 -7.6040289e-002
 -9.8592405e-002 -8.2842635e-002
 -1.0446294e-001 -7.8409304e-002
 -9.3932870e-002 -6.2397505e-002
 -7.3556485e-002 -4.5684012e-002
 -6.3139313e-002 -4.6090875e-002
 -8.1860316e-002 -7.5470049e-002
 -1.2993671e-001 -1.2568918e-001
 -1.7982023e-001 -1.6431448e-001
 -1.8660003e-001 -1.4673294e-001
 -1.1487119e-001 -4.1316645e-002
  3.3673097e-002  1.4594879e-001
  2.1090446e-001  3.6359775e-001
  3.4074886e-001  5.3188730e-001
  3.5760692e-001  5.7883385e-001
  2.4300976e-001  4.7646006e-001
  3.8233573e-002  2.5683317e-001
 -1.7556054e-001 -1.7679924e-003
 -3.1867048e-001 -2.1158239e-001
 -3.5156698e-001 -3.1485621e-001
 -2.8931274e-001 -3.0529041e-001
 -1.8538063e-001 -2.2178993e-001
 -9.7317409e-002 -1.2116519e-001
 -5.6255889e-002 -4.7445482e-002
 -5.7374354e-002 -1.4842790e-002
 -7.3232702e-002 -1.0852230e-002
 -7.7560187e-002 -1.3116622e-002
 -6.2402946e-002 -6.7733626e-003
 -3.8766235e-002  8.4742391e-003
 -2.3668038e-002  2.3387005e-002
 -2.5298976e-002  2.9727997e-002
 -3.7492263e-002  2.7370883e-002
 -4.6203131e-002  2.3345794e-002
 -4.1321597e-002  2.5211241e-002
 -2.4101661e-002  3.4823648e-002
 -4.9812710e-003  4.7584336e-002
  5.5154447e-003  5.7016708e-002
  4.9505729e-003  6.0304199e-002
  2.8001676e-005  6.0295462e-002
  3.3894696e-004  6.2672530e-002
  1.0381222e-002  7.1002457e-002
  2.6378249e-002  8.3982948e-002
  3.9985019e-002  9.6927714e-002
  4.5443510e-002  1.0595019e-001
  4.4189598e-002  1.1117237e-001
  4.3366864e-002  1.1635045e-001
  4.9896794e-002  1.2551396e-001
  6.5114476e-002  1.3956311e-001
  8.4392094e-002  1.5585475e-001
  1.0169360e-001  1.7096138e-001
  1.1505200e-001  1.8413552e-001
  1.2825809e-001  1.9831010e-001
  1.4736050e-001  2.1755697e-001
  1.7502442e-001  2.4310840e-001
  2.0751843e-001  2.7130194e-001
  2.3688158e-001  2.9538853e-001
  2.5664630e-001  3.1005961e-001
  2.6650657e-001  3.1528715e-001
  2.7211746e-001  3.1635405e-001
  2.8013788e-001  3.1987320e-001
  2.9242240e-001  3.2867973e-001
  3.0395238e-001  3.3938670e-001
  3.0611519e-001  3.4436105e-001
  2.9272170e-001  3.3659419e-001
  2.6415812e-001  3.1390070e-001
  2.2668937e-001  2.7967327e-001
  1.8778896e-001  2.4011213e-001
  1.5135569e-001  2.0038860e-001
  1.1649696e-001  1.6268015e-001
  8.0477710e-002  1.2714226e-001
  4.2933944e-002  9.4274412e-002
  7.6076696e-003  6.6188209e-002
 -1.9914354e-002  4.5423778e-002
 -3.6463477e-002  3.2519678e-002
 -4.3958831e-002  2.4631905e-002
 -4.8128154e-002  1.6856584e-002
 -5.4285878e-002  5.5198392e-003
 -6.3510208e-002 -9.0120217e-003
 -7.2380546e-002 -2.2434960e-002
 -7.6343190e-002 -2.9648811e-002
 -7.3901998e-002 -2.8634440e-002
 -6.8122613e-002 -2.2087010e-002
 -6.4244312e-002 -1.5516270e-002
 -6.5521466e-002 -1.3378214e-002
 -7.0770666e-002 -1.6178691e-002
 -7.5719567e-002 -2.0773634e-002
 -7.6943651e-002 -2.3412964e-002
 -7.5032536e-002 -2.2999809e-002
 -7.4088917e-002 -2.1791518e-002
 -7.7942620e-002 -2.3100147e-002
 -8.6265957e-002 -2.7984196e-002
 -9.4051356e-002 -3.3885652e-002
 -9.5307969e-002 -3.6540178e-002
 -8.8057982e-002 -3.3600879e-002
 -7.6572556e-002 -2.7013240e-002
 -6.8688622e-002 -2.1981692e-002
 -7.0005953e-002 -2.3119563e-002
 -7.9468381e-002 -3.0802244e-002
 -8.9918912e-002 -4.0632774e-002
 -9.3479163e-002 -4.6710653e-002
 -8.7671179e-002 -4.6172670e-002
 -7.7447991e-002 -4.1461791e-002
 -7.1410166e-002 -3.8403613e-002
 -7.5082228e-002 -4.1599137e-002
 -8.6523536e-002 -5.0771391e-002
 -9.7683273e-002 -6.0879835e-002
 -1.0058114e-001 -6.6019786e-002
 -9.3558205e-002 -6.4078859e-002
 -8.2629008e-002 -5.8408451e-002
 -7.6857300e-002 -5.5178204e-002
 -8.1344459e-002 -5.8485099e-002
 -9.3331315e-002 -6.7174137e-002
 -1.0441110e-001 -7.5831204e-002
 -1.0711349e-001 -7.9222298e-002
 -1.0060325e-001 -7.6505238e-002
 -9.1121961e-002 -7.1915842e-002
 -8.6858225e-002 -7.1293099e-002
 -9.1397612e-002 -7.7227992e-002
 -1.0095371e-001 -8.6760806e-002
 -1.0752788e-001 -9.3567233e-002
 -1.0541786e-001 -9.2981493e-002
 -9.5788301e-002 -8.5796450e-002
 -8.5669263e-002 -7.7765092e-002
 -8.2354772e-002 -7.5207041e-002
 -8.7695391e-002 -8.0133338e-002
 -9.6841721e-002 -8.8736482e-002
 -1.0237306e-001 -9.4469058e-002
 -1.0031170e-001 -9.3252775e-002
 -9.3153467e-002 -8.6688892e-002
 -8.7462606e-002 -8.0666398e-002
 -8.8163369e-002 -8.0485692e-002
 -9.4374213e-002 -8.6474551e-002
 -1.0022510e-001 -9.3567286e-002
 -9.9963243e-002 -9.5180783e-002
 -9.2905962e-002 -8.8198367e-002
 -8.4070287e-002 -7.5142497e-002
 -7.9787507e-002 -6.1806425e-002
 -8.1925904e-002 -5.2405320e-002
 -8.5746762e-002 -4.6302377e-002
 -8.3468089e-002 -3.9139387e-002
 -7.0779255e-002 -2.7409744e-002
 -5.0869625e-002 -1.2569373e-002
 -3.2463659e-002 -1.0889944e-003
