-3.5289021E-02
-3.4935346E-02
-3.6594436E-02
-3.7269665E-02
-3.6216788E-02
-3.5214552E-02
-3.6160800E-02
-3.8413678E-02
-3.8632046E-02
-3.3627907E-02
-2.3929402E-02
-1.4554119E-02
-1.1665616E-02
-1.7391508E-02
-2.7080195E-02
-3.1655003E-02
-2.3836691E-02
-3.6534111E-03
2.0885723E-02
3.8739925E-02
4.2873443E-02
3.4290193E-02
2.0121960E-02
7.6187154E-03
-9.7077105E-04
-8.6966364E-03
-1.9678108E-02
-3.4299613E-02
-4.8080287E-02
-5.5326541E-02
-5.4408839E-02
-4.9786111E-02
-4.8645136E-02
-5.4801282E-02
-6.5189549E-02
-7.2331738E-02
-7.0906771E-02
-6.3017047E-02
-5.7072886E-02
-6.0636066E-02
-7.2875412E-02
-8.3761365E-02
-8.2020478E-02
-6.6094642E-02
-4.8499638E-02
-4.7898319E-02
-7.2694061E-02
-1.0814906E-01
-1.1881905E-01
-6.8710758E-02
5.1819765E-02
2.1070084E-01
3.4351234E-01
3.8538916E-01
3.0771658E-01
1.3709091E-01
-5.6242825E-02
-1.9471197E-01
-2.3331280E-01
-1.7969955E-01
-8.3790721E-02
-5.2044164E-03
2.0270515E-02
-4.5337283E-03
-4.8269082E-02
-7.6218760E-02
-7.2647446E-02
-4.6723268E-02
-2.0995033E-02
-1.3129443E-02
-2.4372631E-02
-4.1515610E-02
-4.8755594E-02
-3.9574467E-02
-2.0273421E-02
-3.7003911E-03
9.7388892E-04
-5.4951974E-03
-1.4159862E-02
-1.5318283E-02
-5.4870421E-03
1.1041742E-02
2.6337796E-02
3.4984919E-02
3.7612232E-02
3.9655843E-02
4.6805234E-02
6.0976253E-02
7.9534810E-02
9.7738549E-02
1.1212621E-01
1.2228957E-01
1.3025803E-01
1.3834960E-01
1.4720256E-01
1.5528963E-01
1.5992052E-01
1.5873339E-01
1.5062078E-01
1.3586979E-01
1.1582537E-01
9.2480681E-02
6.7988893E-02
4.4282755E-02
2.2776079E-02
4.3308662E-03
-1.0701161E-02
-2.2264661E-02
-3.0431015E-02
-3.5523414E-02
-3.8448760E-02
-4.0633205E-02
-4.3284580E-02
-4.6551361E-02
-4.9321612E-02
-5.0072763E-02
-4.8238288E-02
-4.5091219E-02
-4.3211645E-02
-4.4657414E-02
-4.9041453E-02
-5.3222008E-02
-5.3286819E-02
-4.7576313E-02
-3.8391777E-02
-3.0867077E-02
-2.9554953E-02
-3.5053789E-02
-4.3215264E-02
-4.7849143E-02
-4.5125760E-02
-3.6404886E-02
-2.7265512E-02
-2.3349101E-02
-2.6222306E-02
-3.2331208E-02
-3.5798341E-02
-3.2873161E-02
-2.4714303E-02
-1.6274548E-02
-1.2166388E-02
-1.2873401E-02
-1.4400623E-02
-1.1512742E-02
-1.8965589E-03
1.1996482E-02
2.4689368E-02
3.1488507E-02
3.1248773E-02
2.5993536E-02
1.8096231E-02
7.8718144E-03
-5.9935572E-03
-2.3662433E-02
-4.1822585E-02
-5.4541001E-02
-5.7293517E-02
-5.0946985E-02
-4.2156338E-02
-3.9087144E-02
-4.5290119E-02
-5.6650111E-02
-6.4538709E-02
-6.2983586E-02
-5.4151168E-02
-4.7180291E-02
-5.0649198E-02
-6.4524735E-02
-7.8639880E-02
-8.0167224E-02
-6.5127048E-02
-4.4203133E-02
-3.6363575E-02
-5.2924799E-02
-8.3481695E-02
-9.5904825E-02
-5.4116369E-02
5.5730330E-02
2.0801283E-01
3.4337877E-01
3.9744196E-01
3.3680055E-01
1.8020891E-01
-8.9587430E-03
-1.5543130E-01
-2.1072593E-01
-1.7516197E-01
-9.1327706E-02
-1.5072296E-02
1.6655371E-02
1.7919277E-03
-3.4129513E-02
-6.0140837E-02
-6.0563574E-02
-4.1416664E-02
-2.1054145E-02
-1.4346170E-02
-2.2607955E-02
-3.5322202E-02
-4.0342528E-02
-3.3501669E-02
-2.0486169E-02
-1.0850001E-02
-9.8110845E-03
-1.4546002E-02
-1.7358398E-02
-1.2493323E-02
-6.7315644E-04
1.2093996E-02
1.9941949E-02
2.2091259E-02
2.3298274E-02
2.9872439E-02
4.4671259E-02
6.5031729E-02
8.5056310E-02
1.0013080E-01
1.0993214E-01
1.1770309E-01
1.2685512E-01
1.3796692E-01
1.4853749E-01
1.5524130E-01
1.5654219E-01
1.5336444E-01
1.4747566E-01
1.3916800E-01
1.2663567E-01
1.0778305E-01
8.2906858E-02
5.5756356E-02
3.1835289E-02
1.5026830E-02
5.1295174E-03
-1.7698778E-03
-1.0321310E-02
-2.2508688E-02
-3.6305948E-02
-4.7327208E-02
-5.2136832E-02
-5.0573742E-02
-4.5610641E-02
-4.1123131E-02
-3.9455834E-02
-4.0405901E-02
-4.2166628E-02
-4.3104387E-02
-4.2846449E-02
-4.1997832E-02
-4.1074662E-02
-3.9941616E-02
-3.8172299E-02
-3.5807182E-02
-3.3616193E-02
-3.2553918E-02
-3.2868496E-02
-3.3681407E-02
-3.3614699E-02
-3.2076673E-02
-3.0007656E-02
-2.9275040E-02
-3.1173896E-02
-3.5343991E-02
-3.9942586E-02
-4.2989627E-02
-4.3662760E-02
-4.2610687E-02
-4.0948610E-02
-3.8961044E-02
-3.5813870E-02
-3.0662225E-02
-2.4171785E-02
-1.8738720E-02
-1.6916438E-02
-1.9139481E-02
-2.2580194E-02
-2.2412655E-02
-1.4929566E-02
-3.4565483E-04
1.6870675E-02
3.0537625E-02
3.6306760E-02
3.3583079E-02
2.4656036E-02
1.2253297E-02
-2.2165782E-03
-1.8365936E-02
-3.4973669E-02
-4.8817508E-02
-5.5942040E-02
-5.4851656E-02
-4.8754449E-02
-4.4301163E-02
-4.6992141E-02
-5.6681367E-02
-6.6981538E-02
-6.9836940E-02
-6.2224191E-02
-4.9504648E-02
-4.2105104E-02
-4.7184581E-02
-6.1954280E-02
-7.4629048E-02
-7.3553623E-02
-5.7911531E-02
-4.0898252E-02
-4.0890087E-02
-6.5073824E-02
-9.7636513E-02
-1.0345280E-01
-4.8541341E-02
7.4195721E-02
2.3151921E-01
3.6029147E-01
3.9871499E-01
3.2093184E-01
1.5393936E-01
-3.4638028E-02
-1.7149559E-01
-2.1476144E-01
-1.7170550E-01
-8.8092380E-02
-1.7866368E-02
7.0325568E-03
-1.0827908E-02
-4.4345204E-02
-6.4463589E-02
-5.9075851E-02
-3.6818356E-02
-1.6217464E-02
-1.0469349E-02
-1.9093833E-02
-3.1089595E-02
-3.5156898E-02
-2.8297512E-02
-1.6541967E-02
-8.4740478E-03
-7.7344144E-03
-1.0693555E-02
-1.0427706E-02
-2.9997230E-03
9.3586485E-03
2.0548055E-02
2.6098976E-02
2.7094933E-02
2.9243642E-02
3.8012875E-02
5.3978813E-02
7.2336127E-02
8.6821191E-02
9.4692918E-02
9.8761009E-02
1.0495923E-01
1.1745344E-01
1.3513663E-01
1.5223736E-01
1.6250166E-01
1.6343405E-01
1.5729959E-01
1.4842131E-01
1.3937931E-01
1.2909257E-01
1.1427434E-01
9.2826901E-02
6.6415778E-02
3.9965788E-02
1.8521488E-02
3.9884551E-03
-5.6414995E-03
-1.4148134E-02
-2.3887787E-02
-3.4100350E-02
-4.1804563E-02
-4.4446733E-02
-4.2142605E-02
-3.7698255E-02
-3.4509465E-02
-3.4159578E-02
-3.5622197E-02
-3.6515409E-02
-3.5148357E-02
-3.1694537E-02
-2.7801913E-02
-2.5082126E-02
-2.3888449E-02
-2.3357514E-02
-2.2635234E-02
-2.1908473E-02
-2.2292764E-02
-2.4604463E-02
-2.8257283E-02
-3.1321170E-02
-3.1698750E-02
-2.8769599E-02
-2.4076449E-02
-2.0439986E-02
-2.0081761E-02
-2.3086890E-02
-2.7438696E-02
-3.0489756E-02
-3.0756231E-02
-2.8832168E-02
-2.6900695E-02
-2.7284039E-02
-3.0903344E-02
-3.6643297E-02
-4.1913927E-02
-4.4000038E-02
-4.1327469E-02
-3.4258827E-02
-2.5076619E-02
-1.7208804E-02
-1.3711305E-02
-1.5669109E-02
-2.1349314E-02
-2.6660846E-02
-2.6898656E-02
-1.9133128E-02
-3.9292258E-03
1.4594745E-02
3.0603629E-02
3.9144127E-02
3.7980695E-02
2.7862791E-02
1.1575344E-02
-7.3123496E-03
-2.5280357E-02
-3.9212162E-02
-4.6793321E-02
-4.7418087E-02
-4.3190594E-02
-3.8700502E-02
-3.8848995E-02
-4.5681831E-02
-5.6521299E-02
-6.5230713E-02
-6.6428653E-02
-5.9768973E-02
-5.0947717E-02
-4.7819796E-02
-5.3985679E-02
-6.4846658E-02
-7.0210608E-02
-6.2454314E-02
-4.4453366E-02
-3.0187476E-02
-3.5442007E-02
-6.3532684E-02
-9.6441293E-02
-1.0008043E-01
-4.3680931E-02
7.7247744E-02
2.2972639E-01
3.5372832E-01
3.9109547E-01
3.1733210E-01
1.5736884E-01
-2.5315897E-02
-1.6071046E-01
-2.0712712E-01
-1.6889713E-01
-8.7945944E-02
-1.6209620E-02
1.3267690E-02
-1.3878592E-04
-3.2237224E-02
-5.4684625E-02
-5.3714778E-02
-3.5428636E-02
-1.6855793E-02
-1.1490915E-02
-2.0334973E-02
-3.3477544E-02
-3.9422842E-02
-3.3946150E-02
-2.2004403E-02
-1.2294804E-02
-9.7487247E-03
-1.2125574E-02
-1.2824519E-02
-6.7793406E-03
5.4885526E-03
1.8797930E-02
2.7965616E-02
3.2110077E-02
3.5035478E-02
4.1671806E-02
5.3910110E-02
6.9303551E-02
8.3495602E-02
9.4023889E-02
1.0223233E-01
1.1181461E-01
1.2522288E-01
1.4104396E-01
1.5464496E-01
1.6156232E-01
1.6073385E-01
1.5493886E-01
1.4807209E-01
1.4174648E-01
1.3389105E-01
1.2054866E-01
9.9365768E-02
7.2054658E-02
4.3829943E-02
2.0227107E-02
3.8474460E-03
-6.5435929E-03
-1.4185304E-02
-2.1564332E-02
-2.8924511E-02
-3.4862273E-02
-3.8230529E-02
-3.9459624E-02
-4.0163549E-02
-4.1535896E-02
-4.3140822E-02
-4.3424103E-02
-4.1379539E-02
-3.7779167E-02
-3.4763994E-02
-3.4077733E-02
-3.5501819E-02
-3.6925404E-02
-3.6189657E-02
-3.3192432E-02
-3.0269960E-02
-3.0253903E-02
-3.3781828E-02
-3.8234295E-02
-3.9506609E-02
-3.5321091E-02
-2.7461895E-02
-2.0993821E-02
-2.0712768E-02
-2.7387014E-02
-3.6876324E-02
-4.3034387E-02
-4.2243952E-02
-3.5999053E-02
-2.9618146E-02
-2.8054939E-02
-3.2134745E-02
-3.8065505E-02
-4.0644171E-02
-3.7554448E-02
-3.1176638E-02
-2.6492456E-02
-2.6845559E-02
-3.1212377E-02
-3.5174005E-02
-3.4731250E-02
-2.9753824E-02
-2.4008433E-02
-2.1692307E-02
-2.3162631E-02
-2.3822404E-02
-1.7374407E-02
-1.2100837E-03
2.0551704E-02
3.8880245E-02
4.5407370E-02
3.7744422E-02
2.0633146E-02
2.1707189E-03
-1.1857408E-02
-2.1086334E-02
-2.8930091E-02
-3.8137795E-02
-4.7657760E-02
-5.3546033E-02
-5.2995760E-02
-4.7687896E-02
-4.3247057E-02
-4.4821122E-02
-5.2510144E-02
-6.0857493E-02
-6.3398181E-02
-5.8540009E-02
-5.1561749E-02
-5.0296649E-02
-5.7988454E-02
-6.9311804E-02
-7.3964943E-02
-6.5993848E-02
-5.1112540E-02
-4.4433892E-02
-5.7984683E-02
-8.6405250E-02
-1.0284617E-01
-7.1731161E-02
2.6960457E-02
1.7727090E-01
3.2634941E-01
4.0756719E-01
3.7638913E-01
2.3750724E-01
4.5574598E-02
-1.2219611E-01
-2.0591184E-01
-1.9186003E-01
-1.1399639E-01
-2.9160108E-02
1.7171905E-02
1.3244713E-02
-2.0264495E-02
-5.0618957E-02
-5.6581815E-02
-3.9478206E-02
-1.6909764E-02
-6.5257322E-03
-1.2891327E-02
-2.6406343E-02
-3.3147751E-02
-2.6511554E-02
-1.1553702E-02
5.7659693E-04
2.4234114E-03
-3.8798216E-03
-8.9854957E-03
-4.3937345E-03
1.0443930E-02
2.7739309E-02
3.7831053E-02
3.7108307E-02
3.1027300E-02
3.0054365E-02
4.1921292E-02
6.6052920E-02
9.4085612E-02
1.1584637E-01
1.2609588E-01
1.2728369E-01
1.2667995E-01
1.3071322E-01
1.4083809E-01
1.5347079E-01
1.6317782E-01
1.6629027E-01
1.6238713E-01
1.5309697E-01
1.3992136E-01
1.2319389E-01
1.0281447E-01
7.9675023E-02
5.6056323E-02
3.4583597E-02
1.6741501E-02
2.2582595E-03
-1.0068978E-02
-2.0937569E-02
-2.9760920E-02
-3.5328151E-02
-3.7328854E-02
-3.7228335E-02
-3.7443554E-02
-3.9556498E-02
-4.3042433E-02
-4.5717612E-02
-4.5563696E-02
-4.2427181E-02
-3.8231508E-02
-3.5390832E-02
-3.4760220E-02
-3.4924197E-02
-3.3559116E-02
-2.9712147E-02
-2.4929156E-02
-2.2183948E-02
-2.3461422E-02
-2.7887984E-02
-3.2100058E-02
-3.2702362E-02
-2.9009536E-02
-2.3706186E-02
-2.0835984E-02
-2.2656943E-02
-2.7958136E-02
-3.3139940E-02
-3.5113667E-02
-3.3720294E-02
-3.1705469E-02
-3.2285344E-02
-3.6297043E-02
-4.1352580E-02
-4.3811962E-02
-4.1817428E-02
-3.6847795E-02
-3.2504231E-02
-3.1573134E-02
-3.3837490E-02
-3.6428465E-02
-3.6506275E-02
-3.3985678E-02
-3.1803736E-02
-3.3330490E-02
-3.9024434E-02
-4.5357429E-02
-4.7131428E-02
-4.1526203E-02
-3.0664525E-02
-2.0504235E-02
-1.6520343E-02
-1.9382640E-02
-2.4022841E-02
-2.3101325E-02
-1.2365228E-02
6.0204896E-03
2.4596788E-02
3.5148299E-02
3.3513824E-02
2.1385377E-02
4.2862169E-03
-1.2318195E-02
-2.5654965E-02
-3.5556605E-02
-4.2601880E-02
-4.6764209E-02
-4.7816563E-02
-4.6703792E-02
-4.5910758E-02
-4.8038305E-02
-5.3475007E-02
-5.9425415E-02
-6.1800474E-02
-5.8865035E-02
-5.3480027E-02
-5.1248098E-02
-5.5664599E-02
-6.4248886E-02
-6.9668886E-02
-6.5936105E-02
-5.5069087E-02
-4.7982308E-02
-5.6606175E-02
-8.1453233E-02
-1.0417780E-01
-9.3323568E-02
-2.2883313E-02
1.0666884E-01
2.5932681E-01
3.7539733E-01
4.0042083E-01
3.1542545E-01
1.4999487E-01
-3.0925682E-02
-1.5968475E-01
-1.9917468E-01
-1.5779948E-01
-7.8772846E-02
-1.2042682E-02
1.3115982E-02
-9.9736680E-04
-2.9991737E-02
-4.8037814E-02
-4.4640495E-02
-2.7509983E-02
-1.2537213E-02
-1.0167699E-02
-1.8455117E-02
-2.6696927E-02
-2.5405681E-02
-1.3945496E-02
-2.2685128E-04
6.5158908E-03
3.4112994E-03
-3.9440761E-03
-6.2647437E-03
1.9237995E-03
1.8030495E-02
3.3555166E-02
4.0783706E-02
3.8665720E-02
3.3465900E-02
3.4032324E-02
4.5518932E-02
6.6203086E-02
8.9283274E-02
1.0791062E-01
1.1959912E-01
1.2695062E-01
1.3460133E-01
1.4525143E-01
1.5773222E-01
1.6818637E-01
1.7292364E-01
1.7061499E-01
1.6247582E-01
1.5065647E-01
1.3646316E-01
1.1979878E-01
1.0010517E-01
7.7668013E-02
5.4012421E-02
3.1245899E-02
1.1097170E-02
-5.6010562E-03
-1.8689759E-02
-2.8200656E-02
-3.4133694E-02
-3.6824078E-02
-3.7433478E-02
-3.7852554E-02
-3.9740516E-02
-4.3388582E-02
-4.7423498E-02
-4.9650337E-02
-4.8596095E-02
-4.4609835E-02
-3.9790002E-02
-3.6674611E-02
-3.6527709E-02
-3.8465726E-02
-4.0085144E-02
-3.9060241E-02
-3.4649113E-02
-2.8142366E-02
-2.2227795E-02
-1.9543851E-02
-2.1256302E-02
-2.6410995E-02
-3.2417996E-02
-3.6327958E-02
-3.6300500E-02
-3.2589291E-02
-2.7589571E-02
-2.4681540E-02
-2.6252376E-02
-3.2098565E-02
-3.9312670E-02
-4.3951909E-02
-4.3529909E-02
-3.8777726E-02
-3.3295853E-02
-3.1114722E-02
-3.3665916E-02
-3.8402727E-02
-4.0438926E-02
-3.6155689E-02
-2.6135681E-02
-1.5185750E-02
-9.1447011E-03
-1.0555699E-02
-1.6399679E-02
-1.9791350E-02
-1.4696882E-02
-3.7470919E-04
1.7804923E-02
3.1726469E-02
3.5585430E-02
2.9109533E-02
1.6758146E-02
3.8616976E-03
-7.2025617E-03
-1.7719053E-02
-2.9930539E-02
-4.3623632E-02
-5.5218405E-02
-6.0340244E-02
-5.7743315E-02
-5.1078325E-02
-4.6658335E-02
-4.8632194E-02
-5.5608066E-02
-6.1692196E-02
-6.1592962E-02
-5.5580471E-02
-4.9844222E-02
-5.1399416E-02
-6.1416831E-02
-7.2876345E-02
-7.5442279E-02
-6.4622901E-02
-4.7787087E-02
-4.0623950E-02
-5.4599468E-02
-8.3682119E-02
-1.0148842E-01
-7.4014056E-02
1.7663273E-02
1.5882268E-01
3.0049117E-01
3.8058553E-01
3.5650410E-01
2.3016642E-01
4.9772032E-02
-1.1381268E-01
-2.0271170E-01
-1.9934571E-01
-1.3038199E-01
-4.6795085E-02
6.4302186E-03
1.2490884E-02
-1.4799448E-02
-4.6464922E-02
-5.9411502E-02
-4.9157895E-02
-2.7985952E-02
-1.2613789E-02
-1.1548037E-02
-2.0841372E-02
-2.9501536E-02
-2.9021035E-02
-1.9345301E-02
-7.5759095E-03
-1.5456967E-03
-3.7519829E-03
-1.0146500E-02
-1.3925799E-02
-1.0794563E-02
-1.5206718E-03
9.8596193E-03
1.9957376E-02
2.8620042E-02
3.8271365E-02
5.1116236E-02
6.6767143E-02
8.2429839E-02
9.5332910E-02
1.0525702E-01
1.1484183E-01
1.2727976E-01
1.4332449E-01
1.6015944E-01
1.7301796E-01
1.7822764E-01
1.7531673E-01
1.6664797E-01
1.5502788E-01
1.4129161E-01
1.2399762E-01
1.0144500E-01
7.4248601E-02
4.6137744E-02
2.2185542E-02
5.7651378E-03
-3.5154623E-03
-9.3331268E-03
-1.5915140E-02
-2.5035794E-02
-3.5086307E-02
-4.2739192E-02
-4.5827100E-02
-4.5050532E-02
-4.3337430E-02
-4.3514136E-02
-4.6130233E-02
-4.9151250E-02
-4.9725085E-02
-4.6565134E-02
-4.1039436E-02
-3.6102274E-02
-3.4001222E-02
-3.4740192E-02
-3.6385425E-02
-3.6778023E-02
-3.5293896E-02
-3.3154373E-02
-3.2152676E-02
-3.2859466E-02
-3.4023104E-02
-3.3756139E-02
-3.1477376E-02
-2.8804399E-02
-2.8485960E-02
-3.2132848E-02
-3.8504806E-02
-4.3935127E-02
-4.4801851E-02
-4.0356190E-02
-3.3647439E-02
-2.9438354E-02
-3.0672747E-02
-3.6077731E-02
-4.0902841E-02
-4.0334688E-02
-3.3206216E-02
-2.3196916E-02
-1.6424751E-02
-1.6911840E-02
-2.3311988E-02
-2.9462984E-02
-2.8412557E-02
-1.7140284E-02
1.3165210E-03
1.9753792E-02
3.1264315E-02
3.3129145E-02
2.7434411E-02
1.8325430E-02
8.4808217E-03
-2.2487985E-03
-1.5262593E-02
-3.0307537E-02
-4.4107437E-02
-5.2071231E-02
-5.1899303E-02
-4.6111117E-02
-4.0928528E-02
-4.1896523E-02
-4.9520387E-02
-5.8616607E-02
-6.2253773E-02
-5.7516863E-02
-4.8421890E-02
-4.3166060E-02
-4.7427233E-02
-5.8870192E-02
-6.7948177E-02
-6.5364353E-02
-5.0908464E-02
-3.6033577E-02
-3.6412695E-02
-5.8226538E-02
-8.7886984E-02
-9.4449466E-02
-4.6442119E-02
6.5581928E-02
2.1538751E-01
3.4746719E-01
4.0267853E-01
3.4976784E-01
2.0430027E-01
2.2996157E-02
-1.2430516E-01
-1.8940276E-01
-1.6739096E-01
-9.3590699E-02
-1.9417238E-02
1.7116867E-02
8.7997613E-03
-2.3865652E-02
-5.1372676E-02
-5.5566047E-02
-3.8663526E-02
-1.7100265E-02
-6.9083598E-03
-1.2206171E-02
-2.4276315E-02
-3.0294102E-02
-2.3926167E-02
-9.6912266E-03
1.6781282E-03
2.3701883E-03
-6.2127153E-03
-1.4875253E-02
-1.4103704E-02
-1.5219639E-03
1.6512774E-02
3.0098396E-02
3.3490840E-02
2.9419506E-02
2.6779684E-02
3.3734282E-02
5.1645888E-02
7.4453454E-02
9.3554322E-02
1.0420972E-01
1.0850895E-01
1.1300839E-01
1.2309212E-01
1.3856958E-01
1.5380793E-01
1.6203398E-01
1.6013433E-01
1.5017951E-01
1.3680470E-01
1.2306782E-01
1.0822612E-01
8.9229790E-02
6.4515540E-02
3.6788015E-02
1.2089547E-02
-4.2988409E-03
-1.1836359E-02
-1.5255217E-02
-2.1024618E-02
-3.2413302E-02
-4.6928482E-02
-5.8189225E-02
-6.0832065E-02
-5.4796060E-02
-4.5623094E-02
-4.0425734E-02
-4.2725815E-02
-5.0070376E-02
-5.6199527E-02
-5.5882622E-02
-4.8826439E-02
-3.9685045E-02
-3.4334568E-02
-3.5377967E-02
-4.0478090E-02
-4.4661027E-02
-4.4510812E-02
-4.0781644E-02
-3.7394494E-02
-3.7819607E-02
-4.1950398E-02
-4.5985254E-02
-4.5572527E-02
-3.9637911E-02
-3.1638639E-02
-2.7057886E-02
-2.9150273E-02
-3.6399099E-02
-4.3702203E-02
-4.6367480E-02
-4.3696215E-02
-3.9315679E-02
-3.7909567E-02
-4.0991458E-02
-4.5383861E-02
-4.5781702E-02
-3.9437301E-02
-2.9047531E-02
-2.1189428E-02
-2.1388536E-02
-2.9350307E-02
-3.8293620E-02
-3.9223521E-02
-2.7315985E-02
-5.7313359E-03
1.6082322E-02
2.8319205E-02
2.6663052E-02
1.4060109E-02
-2.3758785E-03
-1.6612616E-02
-2.7070923E-02
-3.5846220E-02
-4.5090716E-02
-5.4096791E-02
-5.9759388E-02
-5.9808744E-02
-5.5628609E-02
-5.1885266E-02
-5.2958383E-02
-5.9186622E-02
-6.6241058E-02
-6.8707329E-02
-6.5034947E-02
-5.9382659E-02
-5.8235718E-02
-6.4304053E-02
-7.3145826E-02
-7.6066761E-02
-6.7901234E-02
-5.3397830E-02
-4.5820664E-02
-5.6566604E-02
-8.2305599E-02
-1.0016436E-01
-7.7491278E-02
7.1281911E-03
1.4446044E-01
2.9074874E-01
3.8520438E-01
3.8097560E-01
2.7207416E-01
9.9399635E-02
-6.8852233E-02
-1.7159947E-01
-1.8430800E-01
-1.2696333E-01
-4.7674602E-02
6.7548277E-03
1.5002258E-02
-1.2958166E-02
-4.8969431E-02
-6.7648938E-02
-6.1028932E-02
-3.9104188E-02
-1.8880574E-02
-1.1389375E-02
-1.5745423E-02
-2.2772355E-02
-2.3781172E-02
-1.6997423E-02
-7.3925142E-03
-1.2143913E-03
-5.7271236E-04
-2.1680150E-03
-6.7635414E-04
6.4886687E-03
1.7186762E-02
2.6706055E-02
3.2007689E-02
3.4358998E-02
3.8318009E-02
4.7973225E-02
6.3660983E-02
8.1673908E-02
9.7027744E-02
1.0704995E-01
1.1311282E-01
1.1928162E-01
1.2908438E-01
1.4299406E-01
1.5818914E-01
1.7046531E-01
1.7646667E-01
1.7480446E-01
1.6576509E-01
1.5042468E-01
1.3008272E-01
1.0641521E-01
8.1707932E-02
5.8470020E-02
3.8350960E-02
2.1353432E-02
6.2447822E-03
-7.9986214E-03
-2.0904024E-02
-3.0516245E-02
-3.4972369E-02
-3.4487231E-02
-3.2062210E-02
-3.2005598E-02
-3.7006678E-02
-4.5966772E-02
-5.4461718E-02
-5.7685001E-02
-5.3817391E-02
-4.5454726E-02
-3.7974275E-02
-3.5910853E-02
-3.9816078E-02
-4.5994070E-02
-4.9242204E-02
-4.6534277E-02
-3.9024948E-02
-3.0998369E-02
-2.6844330E-02
-2.8126042E-02
-3.2850786E-02
-3.7184257E-02
-3.8346580E-02
-3.6320517E-02
-3.3397143E-02
-3.2142837E-02
-3.3525202E-02
-3.6480407E-02
-3.9052837E-02
-4.0014958E-02
-3.9849655E-02
-4.0269936E-02
-4.2768302E-02
-4.7302582E-02
-5.2083915E-02
-5.4594600E-02
-5.3021202E-02
-4.7294944E-02
-3.9278286E-02
-3.1955366E-02
-2.7955732E-02
-2.8237793E-02
-3.1520009E-02
-3.4799842E-02
-3.4674868E-02
-2.8970638E-02
-1.7896136E-02
-4.0336721E-03
8.9353223E-03
1.7934220E-02
2.1486669E-02
1.9556256E-02
1.2693993E-02
1.4154146E-03
-1.3607287E-02
-3.0551843E-02
-4.5913761E-02
-5.5496202E-02
-5.6882219E-02
-5.1617784E-02
-4.5073177E-02
-4.3378265E-02
-4.9219830E-02
-5.9533457E-02
-6.7342267E-02
-6.6947891E-02
-5.8785605E-02
-4.9840745E-02
-4.8560940E-02
-5.7705795E-02
-7.0870606E-02
-7.6397777E-02
-6.6785101E-02
-4.6668609E-02
-3.2096552E-02
-3.9293676E-02
-6.9477243E-02
-1.0109042E-01
-9.7707225E-02
-2.9749170E-02
1.0247432E-01
2.6005263E-01
3.7951115E-01
4.0424513E-01
3.1593710E-01
1.4692451E-01
-3.4916750E-02
-1.6062321E-01
-1.9407179E-01
-1.4628345E-01
-6.3327938E-02
3.0713126E-03
2.3610015E-02
2.1898188E-03
-3.4315560E-02
-5.7569949E-02
-5.5432729E-02
-3.5559219E-02
-1.5433045E-02
-8.0919639E-03
-1.3947421E-02
-2.3228063E-02
-2.5338391E-02
-1.7095574E-02
-3.9549458E-03
5.5418962E-03
6.7016099E-03
1.6976922E-03
-2.9866449E-03
-1.8985130E-03
5.6361897E-03
1.6096228E-02
2.5555884E-02
3.2945720E-02
4.0271857E-02
5.0048556E-02
6.2712134E-02
7.6293181E-02
8.8393585E-02
9.8574384E-02
1.0883897E-01
1.2164581E-01
1.3723341E-01
1.5267635E-01
1.6375875E-01
1.6802648E-01
1.6642790E-01
1.6211917E-01
1.5744044E-01
1.5160283E-01
1.4106714E-01
1.2257905E-01
9.6372683E-02
6.6934651E-02
4.0397896E-02
2.0709987E-02
7.4510991E-03
-3.0219188E-03
-1.4162991E-02
-2.6290149E-02
-3.6406313E-02
-4.0897395E-02
-3.8887957E-02
-3.3424437E-02
-2.9499304E-02
-3.0524384E-02
-3.6083324E-02
-4.2564505E-02
-4.6033148E-02
-4.5001948E-02
-4.1050107E-02
-3.7032149E-02
-3.4617476E-02
-3.3260194E-02
-3.1420630E-02
-2.8651843E-02
-2.6420557E-02
-2.6843943E-02
-3.0486191E-02
-3.5182165E-02
-3.7214775E-02
-3.4125575E-02
-2.6977670E-02
-1.9976629E-02
-1.7453790E-02
-2.0580335E-02
-2.6441998E-02
-3.0304237E-02
-2.9348708E-02
-2.4986821E-02
-2.1888609E-02
-2.4364191E-02
-3.2822904E-02
-4.3183016E-02
-4.9729202E-02
-4.9219728E-02
-4.3062222E-02
-3.6003724E-02
-3.2563793E-02
-3.3884224E-02
-3.7302569E-02
-3.8785866E-02
-3.6127137E-02
-3.0310676E-02
-2.4075056E-02
-1.9234352E-02
-1.5100589E-02
-9.2440648E-03
1.3833505E-04
1.2308039E-02
2.3989539E-02
3.1288937E-02
3.1854561E-02
2.5679055E-02
1.4197920E-02
-1.0253798E-03
-1.8547476E-02
-3.6232099E-02
-5.0772719E-02
-5.8662966E-02
-5.8544409E-02
-5.3037061E-02
-4.8015591E-02
-4.8953037E-02
-5.6719578E-02
-6.6376644E-02
-7.0518714E-02
-6.5162951E-02
-5.3612371E-02
-4.4709936E-02
-4.6168698E-02
-5.7844796E-02
-7.0720322E-02
-7.3553971E-02
-6.2781455E-02
-4.7524816E-02
-4.4085056E-02
-6.2132035E-02
-9.2143298E-02
-1.0486646E-01
-6.6472627E-02
3.7990922E-02
1.8776636E-01
3.2929140E-01
4.0041458E-01
3.6334060E-01
2.2692060E-01
4.4334881E-02
-1.1345222E-01
-1.9331238E-01
-1.8423687E-01
-1.1719024E-01
-4.2544141E-02
-3.5496411E-04
-1.4353142E-03
-2.8551016E-02
-5.3692886E-02
-5.8106577E-02
-4.2230706E-02
-2.0919757E-02
-9.9397536E-03
-1.4462591E-02
-2.7165736E-02
-3.5706449E-02
-3.2664566E-02
-2.0331170E-02
-7.6506173E-03
-2.5473928E-03
-5.8924354E-03
-1.1486000E-02
-1.1418040E-02
-2.2504388E-03
1.2730853E-02
2.6520165E-02
3.3863569E-02
3.5036911E-02
3.5299492E-02
4.0867703E-02
5.4561093E-02
7.4274306E-02
9.5002092E-02
1.1246269E-01
1.2541187E-01
1.3534575E-01
1.4437651E-01
1.5317357E-01
1.6044668E-01
1.6414133E-01
1.6306462E-01
1.5749908E-01
1.4844021E-01
1.3639027E-01
1.2098015E-01
1.0171473E-01
7.9138170E-02
5.5277759E-02
3.2946507E-02
1.4255815E-02
-5.3634019E-04
-1.2796591E-02
-2.4068444E-02
-3.4560397E-02
-4.2872290E-02
-4.7164923E-02
-4.6882343E-02
-4.3679416E-02
-4.0802515E-02
-4.1131375E-02
-4.5225817E-02
-5.0818195E-02
-5.4271273E-02
-5.2994133E-02
-4.7148501E-02
-3.9539359E-02
-3.3840973E-02
-3.2284057E-02
-3.4285506E-02
-3.7002241E-02
-3.7353962E-02
-3.4102393E-02
-2.8511273E-02
-2.3361065E-02
-2.1117320E-02
-2.2522332E-02
-2.6417424E-02
-3.0818665E-02
-3.4337058E-02
-3.6844244E-02
-3.8911650E-02
-4.0750594E-02
-4.1709176E-02
-4.0738187E-02
-3.7478790E-02
-3.3019149E-02
-2.9582941E-02
-2.9118273E-02
-3.1747350E-02
-3.5416717E-02
-3.7192555E-02
-3.5312692E-02
-3.0444957E-02
-2.5201692E-02
-2.2185667E-02
-2.1983682E-02
-2.2512725E-02
-2.0473342E-02
-1.3730900E-02
-2.9883506E-03
8.6443964E-03
1.7605111E-02
2.1827271E-02
2.1229267E-02
1.6621694E-02
8.2614848E-03
-4.4131566E-03
-2.1445037E-02
-4.0605366E-02
-5.7125284E-02
-6.5991331E-02
-6.5362401E-02
-5.8454926E-02
-5.1991606E-02
-5.1819487E-02
-5.8746063E-02
-6.7885987E-02
-7.2455187E-02
-6.9360916E-02
-6.2081465E-02
-5.7997460E-02
-6.1996097E-02
-7.1508648E-02
-7.7606440E-02
-7.2314318E-02
-5.6790317E-02
-4.3110680E-02
-4.6177882E-02
-6.9804586E-02
-9.7409735E-02
-9.6344717E-02
-3.6561993E-02
8.6551994E-02
2.4042482E-01
3.6499350E-01
4.0150015E-01
3.2498132E-01
1.6077590E-01
-2.6056487E-02
-1.6337562E-01
-2.0803191E-01
-1.6472925E-01
-7.7760564E-02
-2.2662450E-03
2.6651819E-02
8.6757101E-03
-2.9499364E-02
-5.6419648E-02
-5.6368558E-02
-3.5671777E-02
-1.3318612E-02
-4.9648593E-03
-1.2429333E-02
-2.5072075E-02
-3.0145346E-02
-2.2909223E-02
-9.0518395E-03
1.4039631E-03
2.7748344E-03
-2.1148949E-03
-5.1294799E-03
-4.9640521E-05
1.2360346E-02
2.5455951E-02
3.2724117E-02
3.3450807E-02
3.3304954E-02
3.9564476E-02
5.5119355E-02
7.6193077E-02
9.5525149E-02
1.0829190E-01
1.1587698E-01
1.2431789E-01
1.3868945E-01
1.5816175E-01
1.7591821E-01
1.8398898E-01
1.7921911E-01
1.6553335E-01
1.5075264E-01
1.4039178E-01
1.3333954E-01
1.2300431E-01
1.0304710E-01
7.3128550E-02
4.0099376E-02
1.3561094E-02
-6.9818651E-04
-4.6243050E-03
-6.0896365E-03
-1.2863156E-02
-2.6852401E-02
-4.2969490E-02
-5.3357536E-02
-5.3523360E-02
-4.5708482E-02
-3.7191250E-02
-3.5014715E-02
-4.1225178E-02
-5.1917118E-02
-6.0504431E-02
-6.2551303E-02
-5.8377261E-02
-5.1883471E-02
-4.7017149E-02
-4.5003497E-02
-4.4221753E-02
-4.2383996E-02
-3.8908601E-02
-3.5430459E-02
-3.4153651E-02
-3.5629012E-02
-3.8088854E-02
-3.8926864E-02
-3.6969091E-02
-3.3472650E-02
-3.1031223E-02
-3.1396445E-02
-3.4063177E-02
-3.6811306E-02
-3.7769303E-02
-3.7152016E-02
-3.7016718E-02
-3.9089405E-02
-4.2700681E-02
-4.4729492E-02
-4.1932319E-02
-3.3828002E-02
-2.3737869E-02
-1.6910111E-02
-1.6777255E-02
-2.2099651E-02
-2.7381332E-02
-2.6384500E-02
-1.6380231E-02
-6.6698245E-05
1.6144836E-02
2.5930113E-02
2.6298342E-02
1.8269031E-02
5.0998728E-03
-1.0190992E-02
-2.5833149E-02
-4.0520419E-02
-5.2330826E-02
-5.8886131E-02
-5.9050832E-02
-5.4547674E-02
-4.9681811E-02
-4.8804976E-02
-5.3203580E-02
-6.0009034E-02
-6.4491351E-02
-6.4186661E-02
-6.1315128E-02
-6.1030268E-02
-6.6538901E-02
-7.5112537E-02
-7.9020472E-02
-7.1631762E-02
-5.4529364E-02
-3.9164530E-02
-3.9784808E-02
-6.0954924E-02
-8.8603601E-02
-9.3049546E-02
-4.5162537E-02
6.2687593E-02
2.0443736E-01
3.2695260E-01
3.7454660E-01
3.1873364E-01
1.7571769E-01
2.9636221E-04
-1.4104159E-01
-2.0280350E-01
-1.8052345E-01
-1.0767403E-01
-3.2965952E-02
7.2838493E-03
5.3705751E-03
-2.0646597E-02
-4.4031965E-02
-4.7876938E-02
-3.3356177E-02
-1.4597157E-02
-5.8829048E-03
-1.1337166E-02
-2.3709893E-02
-3.1627832E-02
-2.8582700E-02
-1.6899884E-02
-4.4918228E-03
2.0313006E-03
2.1843376E-03
1.0306936E-03
4.2482101E-03
1.3290489E-02
2.4646472E-02
3.3371745E-02
3.7620792E-02
4.0210676E-02
4.6163673E-02
5.8376920E-02
7.5114019E-02
9.1366442E-02
1.0302339E-01
1.1038978E-01
1.1794924E-01
1.3047282E-01
1.4852251E-01
1.6713708E-01
1.7878871E-01
1.7847908E-01
1.6715379E-01
1.5084540E-01
1.3616831E-01
1.2557497E-01
1.1596152E-01
1.0169187E-01
7.9483722E-02
5.1357192E-02
2.3487358E-02
1.9524633E-03
-1.1268712E-02
-1.9124787E-02
-2.6573018E-02
-3.6307925E-02
-4.6672631E-02
-5.3311426E-02
-5.3099813E-02
-4.7165213E-02
-4.0487010E-02
-3.8501093E-02
-4.3160466E-02
-5.1574384E-02
-5.8213330E-02
-5.9030765E-02
-5.4254212E-02
-4.7792876E-02
-4.3941339E-02
-4.4124982E-02
-4.6098324E-02
-4.6098511E-02
-4.2070676E-02
-3.5409694E-02
-2.9848905E-02
-2.8429146E-02
-3.1193389E-02
-3.5364861E-02
-3.7777732E-02
-3.7321087E-02
-3.5490416E-02
-3.4676395E-02
-3.5727586E-02
-3.6996680E-02
-3.5760659E-02
-3.0969909E-02
-2.4682457E-02
-2.0795203E-02
-2.1837684E-02
-2.6463785E-02
-2.9773027E-02
-2.6476601E-02
-1.4771448E-02
1.9634952E-03
1.7104740E-02
2.4934590E-02
2.3921580E-02
1.6613878E-02
6.7654055E-03
-3.7434820E-03
-1.5655148E-02
-3.0229280E-02
-4.6379198E-02
-5.9881264E-02
-6.5884112E-02
-6.3045814E-02
-5.5552342E-02
-5.0826073E-02
-5.4170304E-02
-6.4422275E-02
-7.4339601E-02
-7.5965954E-02
-6.7252002E-02
-5.4482483E-02
-4.8046731E-02
-5.4156026E-02
-6.9023659E-02
-8.0785974E-02
-7.8629107E-02
-6.2533897E-02
-4.5454623E-02
-4.4598918E-02
-6.6488711E-02
-9.6634050E-02
-1.0314088E-01
-5.4909605E-02
5.5690760E-02
2.0071308E-01
3.2491233E-01
3.7204359E-01
3.1503933E-01
1.7233309E-01
8.1661580E-06
-1.3622956E-01
-1.9330151E-01
-1.6905303E-01
-9.7522759E-02
-2.6060420E-02
1.0987731E-02
6.9370504E-03
-2.0708342E-02
-4.6647416E-02
-5.4878847E-02
-4.5925916E-02
-3.1831524E-02
-2.4766050E-02
-2.8116826E-02
-3.5658047E-02
-3.7942894E-02
-3.0212719E-02
-1.5664252E-02
-2.3639218E-03
3.1426441E-03
3.9414771E-04
-5.2734843E-03
-7.0141345E-03
-1.2879462E-03
1.0275033E-02
2.2916979E-02
3.2672076E-02
3.9055568E-02
4.4751066E-02
5.3083367E-02
6.5450237E-02
8.0637719E-02
9.6092854E-02
1.0991439E-01
1.2187209E-01
1.3287862E-01
1.4367562E-01
1.5384878E-01
1.6197473E-01
1.6647196E-01
1.6626891E-01
1.6077745E-01
1.4953106E-01
1.3210619E-01
1.0869115E-01
8.0980811E-02
5.2486123E-02
2.7534328E-02
9.2058355E-03
-2.3290905E-03
-9.7979832E-03
-1.7017409E-02
-2.6364037E-02
-3.7249136E-02
-4.6589061E-02
-5.1093618E-02
-4.9803947E-02
-4.4956147E-02
-4.0621475E-02
-4.0102590E-02
-4.3897558E-02
-4.9623964E-02
-5.3752601E-02
-5.3941059E-02
-5.0401239E-02
-4.5426311E-02
-4.1519374E-02
-3.9707395E-02
-3.9188285E-02
-3.8365359E-02
-3.6259570E-02
-3.3324149E-02
-3.1048221E-02
-3.0739971E-02
-3.2463570E-02
-3.4937172E-02
-3.6503469E-02
-3.6198398E-02
-3.4215917E-02
-3.1497875E-02
-2.8893323E-02
-2.6613694E-02
-2.4304474E-02
-2.1612928E-02
-1.8746549E-02
-1.6376253E-02
-1.4989475E-02
-1.4310881E-02
-1.3347207E-02
-1.1036211E-02
-6.8626941E-03
-1.0419829E-03
5.8482805E-03
1.3369472E-02
2.1288590E-02
2.8905867E-02
3.4188826E-02
3.3844652E-02
2.4903733E-02
7.1177643E-03
-1.5606465E-02
-3.6185541E-02
-4.7723016E-02
-4.7544972E-02
-3.9189745E-02
-3.0655085E-02
-2.9503237E-02
-3.7859318E-02
-5.0934604E-02
-6.0290835E-02
-5.9839263E-02
-5.0409985E-02
-3.9455067E-02
-3.5594244E-02
-4.1824047E-02
-5.2604181E-02
-5.7706121E-02
-5.0535704E-02
-3.4765354E-02
-2.3431960E-02
-2.9680065E-02
-5.4434898E-02
-8.0104148E-02
-7.6748632E-02
-1.9432274E-02
9.2949708E-02
2.2975167E-01
3.3866398E-01
3.7033237E-01
3.0456281E-01
1.6300201E-01
7.9610233E-05
-1.2341833E-01
-1.6958289E-01
-1.3926212E-01
-6.6759579E-02
2.1648018E-03
3.5240250E-02
2.7506697E-02
-2.3324817E-03
-2.8174251E-02
-3.3740886E-02
-2.0175387E-02
-1.1376241E-03
9.0974145E-03
5.5857547E-03
-5.5796628E-03
-1.3536665E-02
-1.1314223E-02
-2.6123098E-04
1.2307054E-02
1.9422581E-02
1.9541419E-02
1.6806043E-02
1.6947084E-02
2.2534474E-02
3.1239924E-02
3.8338706E-02
4.1037124E-02
4.0984980E-02
4.3024204E-02
5.1353121E-02
6.6347843E-02
8.4416136E-02
1.0075922E-01
1.1292056E-01
1.2215389E-01
1.3176145E-01
1.4382197E-01
1.5699967E-01
1.6719601E-01
1.7031149E-01
1.6492897E-01
1.5283746E-01
1.3726210E-01
1.2035422E-01
1.0203546E-01
8.1000403E-02
5.6912528E-02
3.1648095E-02
8.4689992E-03
-1.0156731E-02
-2.4169280E-02
-3.5528071E-02
-4.6167454E-02
-5.5962318E-02
-6.2551615E-02
-6.3422770E-02
-5.8745767E-02
-5.2417373E-02
-5.0110080E-02
-5.5544448E-02
-6.7727494E-02
-8.1234494E-02
-8.9608031E-02
-8.9611651E-02
-8.3285218E-02
-7.6330011E-02
-7.3956795E-02
-7.7271179E-02
-8.2799924E-02
-8.5342614E-02
-8.1886216E-02
-7.3803400E-02
-6.5841850E-02
-6.2679896E-02
-6.5768599E-02
-7.2603821E-02
-7.8781169E-02
-8.1034806E-02
-7.8906803E-02
-7.4151380E-02
-6.8812729E-02
-6.3699865E-02
-5.8358677E-02
-5.2439557E-02
-4.6839771E-02
-4.3410780E-02
-4.3309257E-02
-4.5428970E-02
-4.6582903E-02
-4.3444128E-02
-3.5002940E-02
-2.3592375E-02
-1.3750488E-02
-9.5867271E-03
-1.2550574E-02
-2.1179261E-02
-3.2770471E-02
-4.5331760E-02
-5.8143164E-02
-7.0767951E-02
-8.1818951E-02
-8.8930474E-02
-9.0290118E-02
-8.6569538E-02
-8.1258184E-02
-7.8631772E-02
-8.0510798E-02
-8.4616177E-02
-8.6212740E-02
-8.2126226E-02
-7.3914043E-02
-6.7309134E-02
-6.7864055E-02
-7.5871997E-02
-8.4992603E-02
-8.6722567E-02
-7.7895439E-02
-6.5079075E-02
-6.0983937E-02
-7.3858829E-02
-9.6940706E-02
-1.0662168E-01
-7.3645370E-02
1.7342483E-02
1.5189526E-01
2.8556896E-01
3.6264573E-01
3.4490391E-01
2.3389148E-01
7.2858100E-02
-7.4096258E-02
-1.5425424E-01
-1.5155434E-01
-9.0638865E-02
-1.8565071E-02
2.3541695E-02
2.1451752E-02
-9.8468742E-03
-4.1400481E-02
-5.1214957E-02
-3.7017150E-02
-1.3861702E-02
-4.2778914E-04
-5.1032788E-03
-2.1419838E-02
-3.4736276E-02
-3.3967982E-02
-1.9357748E-02
-1.1505951E-03
8.9968544E-03
6.7897248E-03
-2.2127031E-03
-7.7005633E-03
-2.7191491E-03
1.1480236E-02
2.7126727E-02
3.6259399E-02
3.6632847E-02
3.2931056E-02
3.2708391E-02
4.0696443E-02
5.5805254E-02
7.2829690E-02
8.6893555E-02
9.6891893E-02
1.0537212E-01
1.1550808E-01
1.2784784E-01
1.3956403E-01
1.4658340E-01
1.4665516E-01
1.4064210E-01
1.3101171E-01
1.1911601E-01
1.0390747E-01
8.3256434E-02
5.6844929E-02
2.8008642E-02
2.7305834E-03
-1.3890743E-02
-2.1100029E-02
-2.3030748E-02
-2.5691613E-02
-3.2647886E-02
-4.2675083E-02
-5.1110380E-02
-5.3730913E-02
-5.0231258E-02
-4.4563574E-02
-4.1876029E-02
-4.4427479E-02
-4.9888124E-02
-5.3342382E-02
-5.1390872E-02
-4.5044482E-02
-3.9101092E-02
-3.8505095E-02
-4.4399889E-02
-5.2954551E-02
-5.8039064E-02
-5.5727686E-02
-4.7211055E-02
-3.7876974E-02
-3.3355966E-02
-3.5619165E-02
-4.1869911E-02
-4.6863875E-02
-4.6858484E-02
-4.2114468E-02
-3.6262687E-02
-3.3143507E-02
-3.4003725E-02
-3.7000712E-02
-3.9221428E-02
-3.9187764E-02
-3.7809234E-02
-3.7148734E-02
-3.8093945E-02
-3.9179769E-02
-3.7662109E-02
-3.2015353E-02
-2.3627442E-02
-1.6039901E-02
-1.2284322E-02
-1.2347653E-02
-1.2869253E-02
-9.4917570E-03
-1.8054486E-04
1.2908149E-02
2.4512544E-02
2.9496030E-02
2.5783850E-02
1.4998748E-02
7.1463971E-04
-1.3899982E-02
-2.7213678E-02
-3.8535772E-02
-4.6840413E-02
-5.0473332E-02
-4.8508987E-02
-4.2537310E-02
-3.6801797E-02
-3.5840279E-02
-4.1153038E-02
-4.9667824E-02
-5.5614107E-02
-5.4880491E-02
-4.8508954E-02
-4.2298872E-02
-4.2220490E-02
-4.9033194E-02
-5.6875344E-02
-5.7764107E-02
-4.9067356E-02
-3.7716226E-02
-3.6447336E-02
-5.3132448E-02
-8.0238642E-02
-9.3362773E-02
-6.2889874E-02
2.6329984E-02
1.5946727E-01
2.9209143E-01
3.6906819E-01
3.5283117E-01
2.4495720E-01
8.7601059E-02
-5.7098604E-02
-1.3829677E-01
-1.4043001E-01
-8.6630578E-02
-2.1185658E-02
1.7191869E-02
1.4924915E-02
-1.4403488E-02
-4.4207040E-02
-5.4167113E-02
-4.1807877E-02
-2.0367717E-02
-6.6194078E-03
-8.5730676E-03
-2.1347201E-02
-3.2743874E-02
-3.3161972E-02
-2.2183784E-02
-7.5473228E-03
1.7218291E-03
2.1474057E-03
-2.4531749E-03
-4.9027261E-03
-5.4551276E-04
9.6096761E-03
2.0449916E-02
2.7393622E-02
3.0132753E-02
3.2533341E-02
3.9178638E-02
5.1563012E-02
6.7131373E-02
8.1700116E-02
9.2921810E-02
1.0206597E-01
1.1264913E-01
1.2719144E-01
1.4463639E-01
1.6064929E-01
1.7040632E-01
1.7158246E-01
1.6527036E-01
1.5435584E-01
1.4096357E-01
1.2511425E-01
1.0561058E-01
8.2222570E-02
5.7202298E-02
3.4529752E-02
1.7412907E-02
6.1289289E-03
-2.0317986E-03
-1.0552439E-02
-2.0952869E-02
-3.1685313E-02
-3.9388818E-02
-4.1708189E-02
-3.9305508E-02
-3.5503031E-02
-3.3789589E-02
-3.5278223E-02
-3.8089883E-02
-3.9087395E-02
-3.6494461E-02
-3.1392173E-02
-2.6938528E-02
-2.5941158E-02
-2.8662556E-02
-3.2652176E-02
-3.4708510E-02
-3.3255250E-02
-2.9369212E-02
-2.5797210E-02
-2.4900306E-02
-2.7130288E-02
-3.1090610E-02
-3.4903990E-02
-3.7627192E-02
-3.9456785E-02
-4.0785772E-02
-4.1207026E-02
-3.9704571E-02
-3.5769117E-02
-3.0513868E-02
-2.6504892E-02
-2.6173706E-02
-2.9863487E-02
-3.5201753E-02
-3.8520656E-02
-3.7535326E-02
-3.3118503E-02
-2.8690542E-02
-2.7618220E-02
-3.0680085E-02
-3.5503566E-02
-3.8493313E-02
-3.7716122E-02
-3.4443762E-02
-3.1925071E-02
-3.2365369E-02
-3.4747250E-02
-3.5517397E-02
-3.1744389E-02
-2.4130214E-02
-1.7210835E-02
-1.6106703E-02
-2.1984363E-02
-2.9863931E-02
-3.1052907E-02
-1.9056592E-02
5.1883902E-03
3.2725320E-02
5.1414690E-02
5.3063146E-02
3.8093609E-02
1.4678796E-02
-6.9920190E-03
-2.0926045E-02
-2.7791021E-02
-3.2208589E-02
-3.7712457E-02
-4.3687732E-02
-4.6612099E-02
-4.4140457E-02
-3.8341025E-02
-3.4856281E-02
-3.8392548E-02
-4.8327059E-02
-5.8437454E-02
-6.1589074E-02
-5.5782405E-02
-4.6410741E-02
-4.2352050E-02
-4.8538776E-02
-6.1027914E-02
-6.9263628E-02
-6.4733119E-02
-4.9524054E-02
-3.7015994E-02
-4.2148431E-02
-6.7124901E-02
-9.3360049E-02
-8.7847059E-02
-2.2723171E-02
1.0308984E-01
2.5492432E-01
3.7446831E-01
4.0836943E-01
3.3730465E-01
1.8808944E-01
2.0897628E-02
-1.0132627E-01
-1.4376983E-01
-1.1352684E-01
-4.9589749E-02
3.0177191E-03
1.8288992E-02
-8.8785923E-04
-3.1435410E-02
-4.9074189E-02
-4.4132481E-02
-2.4757750E-02
-7.5641450E-03
-4.2379407E-03
-1.3920677E-02
-2.5873219E-02
-2.8873663E-02
-1.9686756E-02
-4.6127608E-03
6.2203618E-03
6.8754694E-03
-2.2529331E-04
-6.7187794E-03
-4.9987176E-03
6.2722635E-03
2.1786000E-02
3.4075329E-02
3.9194713E-02
3.9275498E-02
4.0490624E-02
4.8267755E-02
6.3532922E-02
8.2597630E-02
1.0043505E-01
1.1440163E-01
1.2556603E-01
1.3694587E-01
1.5039384E-01
1.6465271E-01
1.7599841E-01
1.8083622E-01
1.7809209E-01
1.6957197E-01
1.5803509E-01
1.4486942E-01
1.2927119E-01
1.0945184E-01
8.4851182E-02
5.7526055E-02
3.1651795E-02
1.1290897E-02
-1.8715586E-03
-9.2334476E-03
-1.3949127E-02
-1.8773492E-02
-2.4631184E-02
-3.0662738E-02
-3.5414093E-02
-3.8086416E-02
-3.8932412E-02
-3.8666928E-02
-3.7580803E-02
-3.5383006E-02
-3.1875257E-02
-2.7720036E-02
-2.4491061E-02
-2.3800696E-02
-2.6160871E-02
-3.0474409E-02
-3.4580313E-02
-3.6606618E-02
-3.6142160E-02
-3.4303729E-02
-3.2639347E-02
-3.1989683E-02
-3.2129021E-02
-3.2395271E-02
-3.2623185E-02
-3.3474473E-02
-3.5769648E-02
-3.9350125E-02
-4.2536317E-02
-4.3031305E-02
-3.9779943E-02
-3.4296351E-02
-3.0133424E-02
-3.0626186E-02
-3.6359014E-02
-4.4292059E-02
-4.9401535E-02
-4.8007261E-02
-4.0503912E-02
-3.1369147E-02
-2.6242536E-02
-2.8114259E-02
-3.5296999E-02
-4.2638638E-02
-4.5127379E-02
-4.1319428E-02
-3.4227084E-02
-2.8963379E-02
-2.8994657E-02
-3.3839313E-02
-3.9779081E-02
-4.2948783E-02
-4.2145354E-02
-3.9352510E-02
-3.7717313E-02
-3.8626986E-02
-4.0423081E-02
-3.9795602E-02
-3.4707034E-02
-2.6338714E-02
-1.8233759E-02
-1.3306145E-02
-1.1206035E-02
-8.2919158E-03
-4.7998240E-04
1.2996480E-02
2.7935429E-02
3.7223362E-02
3.5361288E-02
2.2163706E-02
2.8999858E-03
-1.5131931E-02
-2.7043183E-02
-3.2659763E-02
-3.5278032E-02
-3.8221638E-02
-4.2161859E-02
-4.5410385E-02
-4.6488393E-02
-4.6366629E-02
-4.8000146E-02
-5.3348655E-02
-6.0722739E-02
-6.5166329E-02
-6.2276008E-02
-5.2649846E-02
-4.2902211E-02
-4.1419383E-02
-5.1490999E-02
-6.7432306E-02
-7.7735705E-02
-7.3970294E-02
-5.8869096E-02
-4.6436319E-02
-5.1985712E-02
-7.7759024E-02
-1.0477573E-01
-9.9336176E-02
-3.2940676E-02
9.5571709E-02
2.5090915E-01
3.7349495E-01
4.0841496E-01
3.3523940E-01
1.8095508E-01
7.3933231E-03
-1.2015666E-01
-1.6491263E-01
-1.3314407E-01
-6.4444438E-02
-5.5644660E-03
1.5474249E-02
1.3371294E-04
-2.8980982E-02
-4.7368566E-02
-4.4746355E-02
-2.8424833E-02
-1.4089978E-02
-1.2631918E-02
-2.2740264E-02
-3.3715922E-02
-3.4968337E-02
-2.4332134E-02
-9.0574711E-03
5.5240101E-04
-6.9044390E-04
-9.1842838E-03
-1.5746275E-02
-1.2696654E-02
5.6775366E-04
1.7600463E-02
3.0085394E-02
3.4096590E-02
3.2686376E-02
3.3235516E-02
4.1905101E-02
5.9443019E-02
8.1128962E-02
1.0051600E-01
1.1395570E-01
1.2276635E-01
1.3156605E-01
1.4434777E-01
1.6128440E-01
1.7836819E-01
1.8984145E-01
1.9148483E-01
1.8264650E-01
1.6604313E-01
1.4574584E-01
1.2486849E-01
1.0448717E-01
8.4085234E-02
6.2884225E-02
4.0921091E-02
1.9496355E-02
7.3127017E-04
-1.3368363E-02
-2.1899685E-02
-2.5502525E-02
-2.6133423E-02
-2.6258806E-02
-2.7912208E-02
-3.1786054E-02
-3.6958246E-02
-4.1417580E-02
-4.3226977E-02
-4.1606063E-02
-3.7284186E-02
-3.2086383E-02
-2.7977699E-02
-2.6138555E-02
-2.6539567E-02
-2.8267758E-02
-3.0212757E-02
-3.1634765E-02
-3.2217201E-02
-3.1941077E-02
-3.0899206E-02
-2.9336427E-02
-2.7670806E-02
-2.6402918E-02
-2.5965549E-02
-2.6398239E-02
-2.7174163E-02
-2.7464816E-02
-2.6762972E-02
-2.5279592E-02
-2.3870115E-02
-2.3436628E-02
-2.4366779E-02
-2.6209544E-02
-2.7952627E-02
-2.8758757E-02
-2.8663684E-02
-2.8681892E-02
-3.0181839E-02
-3.3915230E-02
-3.9397847E-02
-4.4884806E-02
-4.8077250E-02
-4.7265521E-02
-4.2380212E-02
-3.5199655E-02
-2.8660707E-02
-2.5444981E-02
-2.6654874E-02
-3.1210356E-02
-3.6293072E-02
-3.8809951E-02
-3.7095900E-02
-3.1726464E-02
-2.4870927E-02
-1.8638535E-02
-1.3524095E-02
-8.0827284E-03
-1.1588492E-04
1.1282828E-02
2.4262933E-02
3.4616151E-02
3.7925230E-02
3.2128292E-02
1.8617002E-02
1.3650345E-03
-1.5324374E-02
-2.8807767E-02
-3.8579553E-02
-4.5174949E-02
-4.8708277E-02
-4.8666383E-02
-4.5130676E-02
-4.0094640E-02
-3.7170800E-02
-3.9457153E-02
-4.6892696E-02
-5.5523374E-02
-5.9804768E-02
-5.6861611E-02
-4.9412082E-02
-4.4486825E-02
-4.8154987E-02
-6.0026693E-02
-7.2349559E-02
-7.5276667E-02
-6.5258985E-02
-5.0090655E-02
-4.5097697E-02
-6.1153806E-02
-9.2151926E-02
-1.1203304E-01
-8.6476272E-02
5.5224120E-03
1.5278103E-01
3.0920028E-01
4.1205285E-01
4.1317112E-01
3.0571393E-01
1.3023878E-01
-4.4536630E-02
-1.5581546E-01
-1.7643777E-01
-1.2390919E-01
-4.5190562E-02
1.2195369E-02
2.4884922E-02
7.0429999E-04
-3.3356763E-02
-5.1865193E-02
-4.6174359E-02
-2.5781058E-02
-7.6570520E-03
-2.8598411E-03
-9.9740589E-03
-1.8839085E-02
-2.0024764E-02
-1.2122748E-02
-1.7070818E-03
3.0523011E-03
-6.6105299E-04
-8.1426155E-03
-1.1132756E-02
-4.3288145E-03
1.0692736E-02
2.7079216E-02
3.8209948E-02
4.2553777E-02
4.4201101E-02
4.9154499E-02
6.0566751E-02
7.6678979E-02
9.2801318E-02
1.0549728E-01
1.1537423E-01
1.2626016E-01
1.4146968E-01
1.6036773E-01
1.7810565E-01
1.8861783E-01
1.8861865E-01
1.7951316E-01
1.6590026E-01
1.5185232E-01
1.3802501E-01
1.2176435E-01
1.0013122E-01
7.3180563E-02
4.4882537E-02
2.0900602E-02
4.9998472E-03
-3.3405424E-03
-8.2915817E-03
-1.4513442E-02
-2.3866647E-02
-3.4409967E-02
-4.2388106E-02
-4.5366773E-02
-4.4122289E-02
-4.1907548E-02
-4.1902723E-02
-4.4810305E-02
-4.8468902E-02
-4.9824376E-02
-4.7589364E-02
-4.3448396E-02
-4.0740088E-02
-4.1768576E-02
-4.5895741E-02
-4.9799542E-02
-4.9843728E-02
-4.4807241E-02
-3.6924952E-02
-3.0416744E-02
-2.8478477E-02
-3.1095283E-02
-3.5273976E-02
-3.7340803E-02
-3.5626419E-02
-3.1596106E-02
-2.8634950E-02
-2.9416482E-02
-3.3835717E-02
-3.9104932E-02
-4.1778899E-02
-4.0239867E-02
-3.5649694E-02
-3.0973108E-02
-2.8882658E-02
-3.0067298E-02
-3.3153905E-02
-3.6042838E-02
-3.7475027E-02
-3.7507372E-02
-3.6699212E-02
-3.5070695E-02
-3.1923372E-02
-2.6786947E-02
-2.0533011E-02
-1.5538012E-02
-1.4265504E-02
-1.7128863E-02
-2.1358474E-02
-2.2190078E-02
-1.5947666E-02
-2.8990944E-03
1.2318827E-02
2.3191157E-02
2.5119477E-02
1.8002469E-02
5.7657205E-03
-6.7218612E-03
-1.6966704E-02
-2.5778820E-02
-3.5280043E-02
-4.5855596E-02
-5.4913036E-02
-5.8643039E-02
-5.5468127E-02
-4.8254003E-02
-4.3011747E-02
-4.4651077E-02
-5.2960476E-02
-6.2360583E-02
-6.6143509E-02
-6.2042561E-02
-5.4569110E-02
-5.1692377E-02
-5.8100985E-02
-7.0395008E-02
-7.8737061E-02
-7.4807937E-02
-6.0163685E-02
-4.7571844E-02
-5.2133455E-02
-7.7135000E-02
-1.0520592E-01
-1.0341528E-01
-4.2352042E-02
8.1354537E-02
2.3415081E-01
3.5621762E-01
3.9040284E-01
3.1365377E-01
1.5204451E-01
-3.0550084E-02
-1.6449395E-01
-2.0881524E-01
-1.6863941E-01
-8.6514602E-02
-1.4765650E-02
1.3498697E-02
-2.2682359E-03
-3.7692157E-02
-6.4006620E-02
-6.6766143E-02
-5.1330627E-02
-3.4166826E-02
-2.8547528E-02
-3.5600863E-02
-4.6057255E-02
-4.9425264E-02
-4.2434065E-02
-3.0463414E-02
-2.1870197E-02
-2.0610278E-02
-2.3288479E-02
-2.2669729E-02
-1.4271905E-02
-2.3654186E-04
1.2631493E-02
1.8762479E-02
1.8572692E-02
1.8304237E-02
2.5004831E-02
4.0919600E-02
6.1727638E-02
8.0094166E-02
9.1617904E-02
9.8219096E-02
1.0629979E-01
1.2129799E-01
1.4295941E-01
1.6515725E-01
1.8015222E-01
1.8395218E-01
1.7856798E-01
1.6940487E-01
1.6018458E-01
1.4979026E-01
1.3360259E-01
1.0827684E-01
7.5824648E-02
4.3565907E-02
1.9705784E-02
7.7544017E-03
4.1374587E-03
9.7185606E-04
-7.9652896E-03
-2.2726702E-02
-3.7465444E-02
-4.5195415E-02
-4.3242244E-02
-3.5361796E-02
-2.8972390E-02
-2.9696695E-02
-3.7377053E-02
-4.6547925E-02
-5.0830416E-02
-4.7682554E-02
-3.9937819E-02
-3.3300475E-02
-3.1954458E-02
-3.5660510E-02
-4.0358419E-02
-4.1585880E-02
-3.7858355E-02
-3.1418766E-02
-2.6127040E-02
-2.4459105E-02
-2.6092366E-02
-2.8814502E-02
-3.0656475E-02
-3.1255430E-02
-3.1560071E-02
-3.2252075E-02
-3.2677008E-02
-3.1430780E-02
-2.8061365E-02
-2.4115748E-02
-2.2293415E-02
-2.4275728E-02
-2.9103089E-02
-3.3629280E-02
-3.4919527E-02
-3.2788134E-02
-3.0197034E-02
-3.0832120E-02
-3.5662206E-02
-4.1438149E-02
-4.2743609E-02
-3.6248358E-02
-2.3875438E-02
-1.2153440E-02
-7.8300291E-03
-1.2698549E-02
-2.1650193E-02
-2.5738124E-02
-1.8418455E-02
-3.5776225E-04
2.0716035E-02
3.4953570E-02
3.6576407E-02
2.6891344E-02
1.2242873E-02
-1.2091129E-03
-1.1602393E-02
-2.1331323E-02
-3.3214726E-02
-4.6644140E-02
-5.7217761E-02
-6.0344345E-02
-5.5666814E-02
-4.8394496E-02
-4.5917365E-02
-5.2036284E-02
-6.3560861E-02
-7.2409912E-02
-7.2084782E-02
-6.3184080E-02
-5.3288671E-02
-5.0901786E-02
-5.8186272E-02
-6.8550637E-02
-7.1876521E-02
-6.3761018E-02
-5.1104974E-02
-4.7984986E-02
-6.3173347E-02
-8.8236140E-02
-9.6607879E-02
-5.7440281E-02
4.2653128E-02
1.8390400E-01
3.1610076E-01
3.8123828E-01
3.4446230E-01
2.1484448E-01
4.2918054E-02
-1.0455666E-01
-1.7797922E-01
-1.6758684E-01
-1.0305052E-01
-3.2181742E-02
7.0747275E-03
4.4434583E-03
-2.3788929E-02
-5.0859525E-02
-5.8297537E-02
-4.5330683E-02
-2.4991116E-02
-1.2100981E-02
-1.2751809E-02
-2.2034605E-02
-2.9935499E-02
-2.9549706E-02
-2.1316586E-02
-1.1007603E-02
-4.2512837E-03
-2.3344179E-03
-2.2066445E-03
8.5957038E-05
5.9165008E-03
1.3481710E-02
2.0227513E-02
2.5532416E-02
3.1317423E-02
4.0084830E-02
5.2415177E-02
6.6186890E-02
7.8292343E-02
8.7443128E-02
9.5552054E-02
1.0630494E-01
1.2203399E-01
1.4141211E-01
1.6001086E-01
1.7309674E-01
1.7847514E-01
1.7719850E-01
1.7171824E-01
1.6328358E-01
1.5076000E-01
1.3215745E-01
1.0734935E-01
7.9528461E-02
5.3816367E-02
3.4061704E-02
2.0326652E-02
9.2316460E-03
-3.0658289E-03
-1.7456425E-02
-3.0927274E-02
-3.9025653E-02
-3.9861898E-02
-3.6270897E-02
-3.4239840E-02
-3.8556780E-02
-4.9078539E-02
-6.0487837E-02
-6.5931796E-02
-6.2052106E-02
-5.1545913E-02
-4.1312233E-02
-3.7553197E-02
-4.1519244E-02
-4.9055325E-02
-5.4066074E-02
-5.3038576E-02
-4.7275369E-02
-4.1346802E-02
-3.9107408E-02
-4.0653448E-02
-4.2619833E-02
-4.1424416E-02
-3.6542873E-02
-3.1088868E-02
-2.9274886E-02
-3.2843468E-02
-3.9465565E-02
-4.4380205E-02
-4.4114754E-02
-3.9240177E-02
-3.3898658E-02
-3.2444754E-02
-3.6026137E-02
-4.1799553E-02
-4.5321913E-02
-4.4085413E-02
-3.9398568E-02
-3.5127293E-02
-3.4312551E-02
-3.6535409E-02
-3.8304557E-02
-3.6080940E-02
-2.9467873E-02
-2.1765930E-02
-1.7457251E-02
-1.8582685E-02
-2.2857166E-02
-2.5100319E-02
-2.0976922E-02
-1.0201915E-02
3.1813297E-03
1.3618288E-02
1.7522632E-02
1.4852037E-02
8.0009637E-03
-5.9701265E-04
-1.0018774E-02
-2.0356055E-02
-3.1070259E-02
-4.0108864E-02
-4.5097733E-02
-4.5613385E-02
-4.4217095E-02
-4.4721443E-02
-4.8957618E-02
-5.4683551E-02
-5.6892004E-02
-5.2032172E-02
-4.1870169E-02
-3.3364048E-02
-3.3667375E-02
-4.3837502E-02
-5.6639037E-02
-6.1352355E-02
-5.2715516E-02
-3.7058439E-02
-2.9456224E-02
-4.1952855E-02
-7.0443253E-02
-9.0689578E-02
-6.9340304E-02
1.4384574E-02
1.4975140E-01
2.9203235E-01
3.8113335E-01
3.7252128E-01
2.6275499E-01
9.3789148E-02
-6.7565817E-02
-1.6353799E-01
-1.7304333E-01
-1.1767858E-01
-4.4281769E-02
3.7441675E-03
8.6999261E-03
-1.7597350E-02
-4.7865909E-02
-5.9758784E-02
-4.8830800E-02
-2.7196837E-02
-1.1538148E-02
-1.0441729E-02
-1.9876516E-02
-2.8494752E-02
-2.7507809E-02
-1.7078628E-02
-4.9700481E-03
5.1696106E-04
-2.8090892E-03
-9.8227509E-03
-1.2590664E-02
-6.5898147E-03
6.2548389E-03
1.9635736E-02
2.8116434E-02
3.1233966E-02
3.3367910E-02
3.9896683E-02
5.2986600E-02
7.0283662E-02
8.7144905E-02
1.0033028E-01
1.1009501E-01
1.1927777E-01
1.3030077E-01
1.4271225E-01
1.5335538E-01
1.5885769E-01
1.5814819E-01
1.5294609E-01
1.4585131E-01
1.3783915E-01
1.2724606E-01
1.1121763E-01
8.8528896E-02
6.1458281E-02
3.4996770E-02
1.3810587E-02
-6.9139170E-04
-1.0875985E-02
-2.0685541E-02
-3.2357336E-02
-4.4523234E-02
-5.3203921E-02
-5.5013743E-02
-5.0110561E-02
-4.2584591E-02
-3.7823244E-02
-3.8926892E-02
-4.4729903E-02
-5.0860344E-02
-5.3027138E-02
-5.0105720E-02
-4.4837582E-02
-4.1550456E-02
-4.2731326E-02
-4.7145606E-02
-5.0879377E-02
-5.0370089E-02
-4.5146654E-02
-3.8199825E-02
-3.3732832E-02
-3.3951219E-02
-3.7388423E-02
-4.0107928E-02
-3.8918140E-02
-3.3989548E-02
-2.8852175E-02
-2.7760911E-02
-3.2383212E-02
-4.0278827E-02
-4.6442862E-02
-4.6913514E-02
-4.1765041E-02
-3.5113146E-02
-3.2060089E-02
-3.4844826E-02
-4.1080426E-02
-4.5433482E-02
-4.3505758E-02
-3.5113373E-02
-2.4582674E-02
-1.7603421E-02
-1.6997774E-02
-2.0576464E-02
-2.2702047E-02
-1.8301564E-02
-6.4788672E-03
8.8152566E-03
2.1346383E-02
2.6476234E-02
2.3507060E-02
1.5037021E-02
4.1976078E-03
-7.6228624E-03
-2.0749844E-02
-3.5256952E-02
-4.9309020E-02
-5.9437135E-02
-6.2903475E-02
-6.0234326E-02
-5.5517177E-02
-5.3663045E-02
-5.6619830E-02
-6.1679460E-02
-6.3697497E-02
-5.9675190E-02
-5.1854115E-02
-4.6540371E-02
-4.9020019E-02
-5.8472576E-02
-6.7520570E-02
-6.7813876E-02
-5.7816330E-02
-4.6078955E-02
-4.5744114E-02
-6.2769608E-02
-8.6146887E-02
-8.8971018E-02
-4.2761900E-02
6.1950910E-02
2.0218231E-01
3.2725901E-01
3.8193359E-01
3.3596702E-01
2.0262573E-01
3.4143367E-02
-1.0419043E-01
-1.6686082E-01
-1.4888922E-01
-8.3199963E-02
-1.7754330E-02
1.2387157E-02
1.4280758E-03
-3.0573056E-02
-5.5647560E-02
-5.7205721E-02
-3.8291730E-02
-1.5360162E-02
-4.2094054E-03
-9.0517281E-03
-2.1737505E-02
-2.9880078E-02
-2.6703000E-02
-1.5153213E-02
-4.1038521E-03
-5.7687293E-04
-4.4563310E-03
-9.4262876E-03
-8.6464452E-03
-1.2683779E-04
1.2329991E-02
2.2846967E-02
2.8359547E-02
3.0672137E-02
3.4426279E-02
4.2961024E-02
5.5714498E-02
6.9311776E-02
8.1054536E-02
9.1482825E-02
1.0372120E-01
1.2018580E-01
1.3954750E-01
1.5667525E-01
1.6580916E-01
1.6459796E-01
1.5577397E-01
1.4499450E-01
1.3648812E-01
1.2998629E-01
1.2134879E-01
1.0612375E-01
8.3294542E-02
5.6313547E-02
3.0737301E-02
1.0507423E-02
-4.2845441E-03
-1.6379368E-02
-2.8231160E-02
-3.9539061E-02
-4.7567107E-02
-4.9752476E-02
-4.6351902E-02
-4.0887712E-02
-3.7906154E-02
-3.9765148E-02
-4.5042910E-02
-4.9842381E-02
-5.0914778E-02
-4.8006361E-02
-4.3701321E-02
-4.1050330E-02
-4.1132920E-02
-4.2437083E-02
-4.2409647E-02
-3.9832613E-02
-3.5864857E-02
-3.2937819E-02
-3.2503556E-02
-3.3813891E-02
-3.4738125E-02
-3.3916171E-02
-3.2184174E-02
-3.1962669E-02
-3.5010276E-02
-4.0401574E-02
-4.4628206E-02
-4.4111394E-02
-3.8183328E-02
-3.0057264E-02
-2.4703632E-02
-2.5246676E-02
-3.0612868E-02
-3.6233793E-02
-3.7385298E-02
-3.2550004E-02
-2.4356710E-02
-1.7228068E-02
-1.3686943E-02
-1.2349483E-02
-9.1818720E-03
-8.5977729E-04
1.2379038E-02
2.6509339E-02
3.6223421E-02
3.8196859E-02
3.2618822E-02
2.2095851E-02
9.3472288E-03
-4.2025985E-03
-1.7887336E-02
-3.0401888E-02
-3.9388147E-02
-4.2799181E-02
-4.0989434E-02
-3.7423422E-02
-3.6788130E-02
-4.1471192E-02
-4.9357868E-02
-5.5227851E-02
-5.5147223E-02
-5.0331330E-02
-4.6803897E-02
-5.0592898E-02
-6.1880979E-02
-7.3263202E-02
-7.4721986E-02
